patient_id,beat_id,beat_index,node_tag,pred_label,p_normal,p_non,softmax_confidence,ccr_score,z_0,z_1,z_2,z_3,z_4,z_5,z_6,z_7,z_8,z_9,z_10,z_11,z_12,z_13,z_14,z_15,z_16,z_17,z_18,z_19,z_20,z_21,z_22,z_23,z_24,z_25,z_26,z_27,z_28,z_29,z_30,z_31,z_32,z_33,z_34,z_35,z_36,z_37,z_38,z_39,z_40,z_41,z_42,z_43,z_44,z_45,z_46,z_47,z_48,z_49,z_50,z_51,z_52,z_53,z_54,z_55,z_56,z_57,z_58,z_59,z_60,z_61,z_62,z_63,z_64,z_65,z_66,z_67,z_68,z_69,z_70,z_71,z_72,z_73,z_74,z_75,z_76,z_77,z_78,z_79,z_80,z_81,z_82,z_83,z_84,z_85,z_86,z_87,z_88,z_89,z_90,z_91,z_92,z_93,z_94,z_95,z_96,z_97,z_98,z_99,z_100,z_101,z_102,z_103,z_104,z_105,z_106,z_107,z_108,z_109,z_110,z_111,z_112,z_113,z_114,z_115,z_116,z_117,z_118,z_119,z_120,z_121,z_122,z_123,z_124,z_125,z_126,z_127,z_128,z_129,z_130,z_131,z_132,z_133,z_134,z_135,z_136,z_137,z_138,z_139,z_140,z_141,z_142,z_143,z_144,z_145,z_146,z_147,z_148,z_149,z_150,z_151,z_152,z_153,z_154,z_155,z_156,z_157,z_158,z_159,z_160,z_161,z_162,z_163,z_164,z_165,z_166,z_167,z_168,z_169,z_170,z_171,z_172,z_173,z_174,z_175,z_176,z_177,z_178,z_179,z_180,z_181,z_182,z_183,z_184,z_185,z_186,z_187,z_188,z_189,z_190,z_191,z_192,z_193,z_194,z_195,z_196,z_197,z_198,z_199,z_200,z_201,z_202,z_203,z_204,z_205,z_206,z_207,z_208,z_209,z_210,z_211,z_212,z_213,z_214,z_215,z_216,z_217,z_218,z_219,z_220,z_221,z_222,z_223,z_224,z_225,z_226,z_227,z_228,z_229,z_230,z_231,z_232,z_233,z_234,z_235,z_236,z_237,z_238,z_239,z_240,z_241,z_242,z_243,z_244,z_245,z_246,z_247,z_248,z_249,z_250,z_251,z_252,z_253,z_254,z_255,z_256,z_257,z_258,z_259,z_260,z_261,z_262,z_263,z_264,z_265,z_266,z_267,z_268,z_269,z_270,z_271,z_272,z_273,z_274,z_275,z_276,z_277,z_278,z_279,z_280,z_281,z_282,z_283,z_284,z_285,z_286,z_287,z_288,z_289,z_290,z_291,z_292,z_293,z_294,z_295,z_296,z_297,z_298,z_299,z_300,z_301,z_302,z_303,z_304,z_305,z_306,z_307,z_308,z_309,z_310,z_311,z_312,z_313,z_314,z_315,z_316,z_317,z_318,z_319,z_320,z_321,z_322,z_323,z_324,z_325,z_326,z_327,z_328,z_329,z_330,z_331,z_332,z_333,z_334,z_335,z_336,z_337,z_338,z_339,z_340,z_341,z_342,z_343,z_344,z_345,z_346,z_347,z_348,z_349,z_350,z_351,z_352,z_353,z_354,z_355,z_356,z_357,z_358,z_359,z_360,z_361,z_362,z_363,z_364,z_365,z_366,z_367,z_368,z_369,z_370,z_371,z_372,z_373,z_374,z_375,z_376,z_377,z_378,z_379,z_380,z_381,z_382,z_383,z_384,z_385,z_386,z_387,z_388,z_389,z_390,z_391,z_392,z_393,z_394,z_395,z_396,z_397,z_398,z_399,z_400,z_401,z_402,z_403,z_404,z_405,z_406,z_407,z_408,z_409,z_410,z_411,z_412,z_413,z_414,z_415,z_416,z_417,z_418,z_419,z_420,z_421,z_422,z_423,z_424,z_425,z_426,z_427,z_428,z_429,z_430,z_431,z_432,z_433,z_434,z_435,z_436,z_437,z_438,z_439,z_440,z_441,z_442,z_443,z_444,z_445,z_446,z_447,z_448,z_449,z_450,z_451,z_452,z_453,z_454,z_455,z_456,z_457,z_458,z_459,z_460,z_461,z_462,z_463,z_464,z_465,z_466,z_467,z_468,z_469,z_470,z_471,z_472,z_473,z_474,z_475,z_476,z_477,z_478,z_479,z_480,z_481,z_482,z_483,z_484,z_485,z_486,z_487,z_488,z_489,z_490,z_491,z_492,z_493,z_494,z_495,z_496,z_497,z_498,z_499,z_500,z_501,z_502,z_503,z_504,z_505,z_506,z_507,z_508,z_509,z_510,z_511
external_007,0,0,18,18,,,,,0.004842653870582581,0.06992139667272568,-0.17291361093521118,0.5246243476867676,1.2121405601501465,-2.0165464878082275,-0.626401424407959,1.3287559747695923,0.5806763172149658,-1.6970707178115845,-0.3768777847290039,1.1618603467941284,0.793318510055542,2.194240093231201,-0.2135404497385025,-1.5110958814620972,1.1182523965835571,0.65770423412323,0.8979209661483765,-0.8427420258522034,-1.1632338762283325,1.4390097856521606,-0.16424542665481567,-1.865436315536499,1.483957290649414,-0.18901926279067993,0.6195459365844727,-0.4005082845687866,-1.0647045373916626,-0.7440086007118225,0.32711902260780334,1.1667488813400269,-0.6098321080207825,-1.3934319019317627,0.058546148240566254,-1.1180464029312134,0.8658408522605896,-0.5606439709663391,0.4823399484157562,-1.2363269329071045,-0.6366639137268066,1.5491470098495483,0.8008154630661011,0.5427267551422119,1.0911948680877686,-0.3034481108188629,1.1576225757598877,-2.3988752365112305,-0.671188473701477,2.5160303115844727,1.6384457349777222,-0.310484915971756,-0.4865938425064087,1.3426531553268433,-0.44808387756347656,-0.2888464033603668,0.8373094797134399,0.0026732266414910555,1.1731077432632446,-0.1615656316280365,-1.2102175951004028,-0.7277922630310059,-3.453157424926758,-2.295335531234741,-0.05976191908121109,-0.3198651671409607,0.02290836162865162,2.207906484603882,-1.1812573671340942,-0.3582868278026581,1.078126072883606,1.8605502843856812,0.7570527791976929,-0.6665109992027283,-0.5117385387420654,-1.0193837881088257,-2.3212573528289795,-0.5252718329429626,0.27934548258781433,-1.2747609615325928,-0.21389678120613098,1.2482129335403442,1.1905593872070312,0.2553662061691284,0.08216606080532074,0.27649661898612976,0.25095808506011963,-1.6854506731033325,0.6721521615982056,-0.9918439984321594,0.9555838704109192,1.5476049184799194,-0.23361161351203918,0.9707481861114502,-0.37248459458351135,0.0759183019399643,0.3752264678478241,-1.860466480255127,0.3559529483318329,0.7688426971435547,0.08430226147174835,0.2744789123535156,-0.23843726515769958,-0.24605382978916168,-0.11432529240846634,-0.17758813500404358,0.4409060478210449,1.867423415184021,1.1846568584442139,-0.7213225960731506,0.2188429832458496,-0.703194797039032,-1.4654964208602905,0.5267159342765808,2.5305938720703125,-0.06275453418493271,0.7998850345611572,1.4425551891326904,0.9072679281234741,1.3483171463012695,0.4854414165019989,0.1503937542438507,-1.347118616104126,-1.2000983953475952,1.9621469974517822,0.25112849473953247,-0.2975408732891083,1.5169548988342285,1.3148467540740967,0.28500625491142273,0.5859273076057434,-1.4941637516021729,-1.0220178365707397,-1.072406530380249,-0.11927668750286102,0.25689801573753357,1.278662085533142,-0.9328411817550659,1.430719256401062,-0.14546318352222443,-0.9053702354431152,-0.865980327129364,0.6353918313980103,-0.7246123552322388,0.3583698868751526,-0.538026750087738,-0.02547856979072094,-0.4798782169818878,-0.2784111499786377,0.16032925248146057,-0.8684120178222656,0.21291786432266235,1.501315712928772,-1.4565539360046387,-0.42350977659225464,-1.0928484201431274,0.7651671767234802,-0.5805642604827881,2.3550631999969482,-0.11471059173345566,0.7694679498672485,-0.010166379623115063,-0.48253726959228516,-0.9732074737548828,-0.4679177701473236,-0.0865103229880333,-0.8503379821777344,0.14791493117809296,-1.212363362312317,0.6360116600990295,-0.024153517559170723,0.13380376994609833,0.8471353054046631,-0.47040414810180664,1.008955955505371,0.02923995442688465,-0.48746258020401,-0.6791317462921143,0.716545820236206,-0.5868070721626282,-0.3486896753311157,1.1538472175598145,1.507591962814331,0.7504097819328308,-0.19310279190540314,-0.6193836331367493,1.2367863655090332,1.3530226945877075,0.20465676486492157,-0.04135885834693909,-0.1735648661851883,0.41152286529541016,-0.31805920600891113,-0.548669695854187,-1.6309610605239868,-0.3606047034263611,-0.23016513884067535,0.5506165027618408,0.798241376876831,0.4159405827522278,0.3120245337486267,-1.0280061960220337,-1.0880157947540283,0.8063321709632874,0.4356379210948944,-0.48960617184638977,-0.04487426206469536,0.2677268385887146,1.6605110168457031,-0.28212958574295044,-0.7724246978759766,1.1120684146881104,-0.32573556900024414,0.6505815386772156,0.3572843074798584,0.7746618986129761,0.5564077496528625,0.49125486612319946,0.29342249035835266,-0.49048885703086853,-0.5388071537017822,1.834006428718567,0.26281633973121643,-0.9924488663673401,0.3073763847351074,-0.21815380454063416,0.07076600939035416,-1.808340311050415,0.5555369257926941,1.5097846984863281,0.4491613507270813,0.09398888051509857,1.005712866783142,0.23143765330314636,-0.4247813820838928,0.11752619594335556,-1.3315578699111938,-1.782804012298584,-1.2715128660202026,0.5972322225570679,0.0719204768538475,-1.3513460159301758,0.23716101050376892,1.6529994010925293,0.8056685924530029,0.5367231965065002,0.6151765584945679,0.0505465492606163,1.046238899230957,0.35102275013923645,0.7491156458854675,-0.10189801454544067,-1.1119821071624756,0.9304346442222595,0.41857579350471497,0.04124349355697632,-0.052342489361763,0.6481121182441711,1.9820737838745117,-0.8830386400222778,-0.2966640293598175,-0.6916183233261108,0.6240876913070679,-2.726212739944458,1.908715844154358,0.034442704170942307,-0.24013084173202515,0.24673613905906677,1.0035099983215332,-0.48186835646629333,0.15982864797115326,2.859419107437134,-0.7355942726135254,0.12032963335514069,0.9833607077598572,-0.4156317710876465,-0.041744038462638855,-1.413163185119629,-1.6212537288665771,0.4000893533229828,-1.3286441564559937,-1.4665780067443848,-0.7565370202064514,-0.54625004529953,1.4691746234893799,1.771924376487732,1.0849553346633911,-0.1297038346529007,1.2064152956008911,-0.8531120419502258,0.21635226905345917,0.5431159734725952,0.035801295191049576,-0.49526768922805786,0.017667315900325775,-1.2688918113708496,0.1861802339553833,0.5152900218963623,0.9291839599609375,-1.2608453035354614,0.3579584062099457,0.34806036949157715,0.6808767914772034,1.6563212871551514,-0.02751214988529682,2.1911470890045166,0.4623763859272003,0.7208466529846191,0.5369826555252075,1.5650849342346191,0.7290588021278381,0.27367597818374634,-1.5177103281021118,-0.6880437731742859,0.1388045847415924,0.009787305258214474,0.19534653425216675,1.7035552263259888,-1.8894139528274536,0.7049369215965271,-1.2432525157928467,0.813865065574646,0.9953405261039734,-2.2645277976989746,1.014374017715454,-1.268638014793396,0.8438956141471863,0.2550114095211029,0.43362510204315186,0.5001456141471863,-1.7658710479736328,0.2676813304424286,-2.1315152645111084,0.13849379122257233,-0.30608832836151123,0.543314516544342,1.8243604898452759,-0.42069822549819946,0.7436408996582031,-0.6587338447570801,-0.11971792578697205,1.0626416206359863,-0.9401935338973999,1.5521798133850098,-2.0798497200012207,1.0689581632614136,-0.002817401196807623,-0.10751871019601822,-0.28435468673706055,1.2621184587478638,0.9106064438819885,0.6973863840103149,-0.6645664572715759,1.2222622632980347,1.1784162521362305,-0.07638902962207794,1.4282783269882202,0.36249053478240967,-1.1984577178955078,0.39057204127311707,0.24848681688308716,-0.4171227216720581,-0.6717643737792969,-1.0540165901184082,-0.6392527222633362,1.4234689474105835,1.2679535150527954,0.046266112476587296,-0.7361469268798828,-0.49176639318466187,0.48079025745391846,0.5499716401100159,1.5407527685165405,-0.09974917769432068,-1.4644279479980469,1.046385645866394,0.9816931486129761,-0.03092675842344761,0.3742932677268982,-1.022222638130188,-0.7977762222290039,1.3714478015899658,-0.019628308713436127,0.3017885684967041,-0.9327101707458496,0.6309400200843811,-0.5753104090690613,0.7380251288414001,0.5026980042457581,-0.6302315592765808,0.2755718529224396,-1.3466609716415405,-2.0545654296875,0.6147230267524719,-0.020448798313736916,0.5010981559753418,0.04438125714659691,-0.5452783107757568,0.4437013566493988,-0.2532927393913269,1.093725323677063,0.9151381850242615,0.013471522368490696,-0.9336490631103516,0.3763119876384735,1.168907880783081,1.8609973192214966,-2.0146849155426025,1.8188798427581787,0.12023657560348511,0.09592071175575256,1.0872513055801392,-0.20713117718696594,-0.39228734374046326,-0.5627586841583252,0.8890303373336792,0.1440301537513733,0.9864917397499084,-0.388198584318161,-0.45341071486473083,-0.2472776621580124,-0.9317979216575623,1.787520408630371,0.9185683131217957,1.8314507007598877,-0.2607055902481079,-1.2156673669815063,-0.7752326130867004,-0.2965560555458069,1.7542171478271484,-1.1409082412719727,-0.2664255201816559,1.114024043083191,0.7515714168548584,1.1096750497817993,1.1493536233901978,-0.8699740767478943,1.0073765516281128,-0.26304858922958374,0.620840847492218,2.3103137016296387,-0.7830188870429993,0.29926663637161255,-0.3619762063026428,2.0439822673797607,0.32877227663993835,-0.6378006339073181,0.18853028118610382,-0.30157801508903503,0.48623132705688477,-1.2167768478393555,-0.2966225743293762,0.42677202820777893,0.3697119653224945,-1.7220557928085327,-1.5694547891616821,-0.6772357821464539,1.3423185348510742,1.2256677150726318,1.6241693496704102,-0.35603755712509155,-1.5738247632980347,1.025324821472168,0.34904906153678894,-2.2412779331207275,-1.3180965185165405,-1.0390433073043823,0.15997454524040222,-0.32600367069244385,0.05998563766479492,0.36224257946014404,-0.5186984539031982,1.404151439666748,-0.2645609378814697,1.1000614166259766,0.518982470035553,-2.208749294281006,-0.19615477323532104,-0.037810102105140686,0.37725332379341125,-0.10247057676315308,0.1435445100069046,-0.04628847911953926,0.07745363563299179,0.024394266307353973,-0.7189636826515198,-0.2905762493610382,-1.6274333000183105,0.6513316035270691,-0.7341055274009705,1.8915027379989624,0.6659298539161682,-1.3652985095977783,-0.7356189489364624,-0.08169355988502502,1.614731788635254,0.9069284200668335,-1.1618611812591553,-1.521241307258606,-1.1091053485870361,-2.4435789585113525,0.2543696463108063,-0.4040370583534241,0.11673378199338913,0.29583272337913513,-0.10245539247989655,-1.4772027730941772,-0.7308915853500366,-0.13316361606121063,-0.9260750412940979,0.3257565498352051,-0.027985475957393646
external_007,1,1,10,10,,,,,-0.15022726356983185,-0.036697909235954285,0.9472836256027222,1.085054874420166,0.7172084450721741,0.040079254657030106,-1.7437307834625244,1.3666949272155762,-0.6613000631332397,-0.8418614268302917,-0.49219176173210144,-0.8353294730186462,0.09957811236381531,-0.5576716065406799,1.164059042930603,-1.4020483493804932,-0.6458468437194824,-2.621882677078247,0.11950040608644485,1.6317096948623657,-0.6223831176757812,-0.5369667410850525,-0.5396419763565063,0.9113075733184814,0.9978088140487671,-1.6925017833709717,0.3315247595310211,1.663623571395874,-0.8030524253845215,-0.5669224262237549,-1.11957585811615,-0.6497708559036255,-1.620798945426941,0.3341195285320282,-0.7388285994529724,0.13809539377689362,-0.5321453213691711,-0.6339434385299683,1.875890851020813,-0.7962349057197571,-0.4544545114040375,-0.4665115177631378,0.4788435399532318,-0.9093743562698364,0.9966254234313965,0.8646361231803894,0.3258471190929413,-0.8691304922103882,-0.7174220681190491,-2.6969869136810303,-1.2101246118545532,1.3715153932571411,0.2763875722885132,1.7380387783050537,0.29670053720474243,-0.3206655979156494,-0.11196323484182358,0.04002116993069649,-1.7842087745666504,0.1919378787279129,0.903992235660553,0.6695171594619751,-0.9734697341918945,0.09887287765741348,-0.10034612566232681,0.8631436228752136,-0.3467211425304413,0.5629627108573914,-1.995377779006958,-0.5677275061607361,1.040037751197815,-0.9026656746864319,1.251794457435608,-0.5333206057548523,-3.072859764099121,0.6895921230316162,-1.0815223455429077,0.3768397271633148,1.2272119522094727,0.2736918330192566,-0.07111303508281708,0.4012432098388672,-0.7504370808601379,1.782230257987976,2.38651967048645,1.2495039701461792,-1.1431450843811035,0.2996889054775238,-1.3220194578170776,-1.0884501934051514,-0.2808145582675934,0.21206237375736237,-0.1630094349384308,0.4723750352859497,0.7394157648086548,0.5175710916519165,0.26152220368385315,-0.04819445312023163,1.946975827217102,0.40514540672302246,0.9371069073677063,-0.8094896674156189,-1.0814141035079956,0.5414013862609863,0.3307613432407379,1.2225840091705322,-0.4575750231742859,-0.7068507075309753,0.8201648592948914,1.3212357759475708,-1.584814190864563,1.6008498668670654,-1.9056110382080078,1.3581507205963135,-1.6799113750457764,-0.3939410150051117,-0.321224570274353,0.1648382991552353,-1.1652330160140991,-2.100505828857422,-0.9340910911560059,0.92302006483078,0.015474315732717514,0.1115715429186821,-0.40391162037849426,0.05413520336151123,0.7638715505599976,1.7671455144882202,-0.2794264554977417,-0.29451316595077515,-0.42792707681655884,1.1633933782577515,0.8133788108825684,-0.9917824268341064,0.8008610010147095,-0.2744709849357605,-0.6085102558135986,-0.0541459359228611,0.309026300907135,-0.6299557685852051,-0.8478612303733826,1.9442561864852905,0.17609702050685883,0.4490305185317993,0.46943235397338867,0.01668274588882923,-0.7614703178405762,1.1721553802490234,1.3090862035751343,0.9176163077354431,-0.8434237241744995,0.6227337718009949,0.6168003082275391,0.3956872820854187,-1.1902226209640503,1.0033090114593506,1.2328351736068726,-0.19884370267391205,0.47911736369132996,-0.14676342904567719,0.7248138785362244,-0.7272260785102844,0.36460253596305847,1.507222294807434,-0.24070274829864502,0.5253199934959412,-0.2501838207244873,-0.1153474971652031,-0.4302672743797302,-1.1505849361419678,-2.1403915882110596,1.2174851894378662,1.0078016519546509,0.24441157281398773,0.5614181756973267,0.216915562748909,-0.008168320171535015,-0.15661941468715668,0.9649496078491211,-0.40022382140159607,-1.3325684070587158,-0.04412394016981125,2.264934539794922,0.9068309664726257,0.28813794255256653,-0.15554660558700562,0.016479285433888435,0.7241111993789673,-0.4698514938354492,0.18307390809059143,-0.7838873863220215,-0.05837743729352951,-0.1356119066476822,-0.4063837230205536,-0.676323413848877,1.6764345169067383,0.007155969738960266,-2.476985454559326,0.35169291496276855,-0.4875975251197815,0.08698603510856628,1.307870626449585,-0.5739147067070007,0.5716708898544312,0.6490169167518616,-0.9647936820983887,1.0373797416687012,-0.05394143611192703,1.2847820520401,-0.06879521906375885,0.7206265330314636,-0.3109241724014282,2.281193494796753,0.32277700304985046,0.8912015557289124,-1.2362498044967651,0.5946746468544006,1.7176753282546997,1.0652878284454346,-1.5830280780792236,-0.017633643001317978,0.8381689786911011,0.01925606280565262,-1.1890662908554077,1.2220031023025513,0.01628096029162407,-0.2943843901157379,-1.7373970746994019,-1.1489067077636719,-1.0750951766967773,-0.9888436198234558,0.04080615192651749,0.033359408378601074,-2.1022534370422363,-2.6256582736968994,-0.2732400596141815,0.8513141870498657,-1.909372329711914,0.2534407675266266,0.13492506742477417,-1.3552888631820679,0.9674614071846008,1.6332440376281738,1.0657973289489746,-2.0398926734924316,-0.4341084659099579,0.1966342329978943,-1.0312809944152832,-1.035110354423523,-0.8264279961585999,0.571776807308197,-0.4589778780937195,-0.9399760961532593,0.5891193151473999,-0.311972975730896,0.6824495792388916,-1.601527214050293,2.430936574935913,0.9796380996704102,0.4961641728878021,-0.722792387008667,0.632368803024292,0.529922604560852,0.19570684432983398,-1.427909016609192,0.4072418808937073,0.4168218672275543,0.2530190944671631,1.04360032081604,1.943145751953125,1.4473074674606323,-0.0693860799074173,-0.25741711258888245,0.49435338377952576,-3.552751302719116,1.01177179813385,-1.1842455863952637,0.5253980159759521,-0.002873973222449422,-0.19401973485946655,-0.5216451287269592,0.3338284194469452,-2.0296833515167236,-1.0075643062591553,0.21435672044754028,-0.3211343288421631,-0.5876789689064026,-0.661312460899353,0.0411069430410862,0.5737265348434448,-1.3793143033981323,-0.2856253981590271,0.27128201723098755,-0.9039193391799927,0.4484947621822357,-1.238315224647522,0.8747518062591553,-0.49942460656166077,-0.7309035658836365,0.49649497866630554,-0.6564743518829346,0.22527560591697693,-0.8714817762374878,0.4921122193336487,-0.044317156076431274,-0.6996920108795166,1.1191842555999756,-2.379584312438965,-0.6040440797805786,-0.4460761547088623,-0.43539777398109436,1.2298821210861206,-0.5768758058547974,1.0335090160369873,-0.16399230062961578,-0.7918825745582581,-1.3820104598999023,-0.013255663216114044,-0.7713524103164673,0.15559324622154236,-0.8256656527519226,1.8395050764083862,-0.3086296617984772,-0.07606766372919083,0.6605777740478516,-1.1405248641967773,-0.4107232689857483,0.714962363243103,-0.3839099705219269,-0.7218679189682007,-0.41517776250839233,0.3408386707305908,0.7922468781471252,-0.9876119494438171,1.0027790069580078,1.0816154479980469,-0.021879075095057487,2.401071071624756,0.8617755174636841,-0.12068209797143936,0.6519810557365417,-1.1892180442810059,-1.5496050119400024,0.03519715741276741,-0.7215948104858398,-0.39112192392349243,0.06858329474925995,0.5762718319892883,-1.093008279800415,1.2484263181686401,1.1876641511917114,0.32079264521598816,1.3844597339630127,-0.1987248808145523,-1.0312622785568237,0.49316170811653137,0.7856355309486389,0.3030335307121277,-0.175520658493042,0.04820215702056885,0.08688069134950638,-0.13388079404830933,0.3727889657020569,-0.43769901990890503,0.8443269729614258,1.3433585166931152,1.3119778633117676,-0.009212890639901161,1.1792542934417725,0.8116987347602844,0.1857808232307434,0.9739574193954468,-1.4002097845077515,0.8349403142929077,-0.893766462802887,-1.3227697610855103,0.13994990289211273,-1.1722601652145386,0.3941274583339691,0.9704148769378662,0.0356779471039772,0.02404003217816353,-0.4764697253704071,0.6519193649291992,-1.7636067867279053,-1.3606595993041992,-1.2281875610351562,1.251065731048584,-0.8590316772460938,0.06056125462055206,-0.32968762516975403,-0.36889636516571045,-1.6821622848510742,0.6007212996482849,-1.5821152925491333,-0.6691545248031616,-0.5191152691841125,0.9822473526000977,-0.06316433101892471,0.9718796014785767,-0.984174370765686,0.9090489745140076,-0.2517755925655365,0.08834321051836014,-0.7383153438568115,0.5158634781837463,1.6940280199050903,1.1242247819900513,0.993736743927002,-0.08250123262405396,0.7401107549667358,-0.638359546661377,0.07501917332410812,-0.6877347230911255,-0.04074445739388466,2.0149965286254883,0.03432342782616615,-0.39547622203826904,-1.4694836139678955,0.549872636795044,-1.2544299364089966,0.7160886526107788,-0.0179724283516407,-0.8991004228591919,-1.0337592363357544,0.8090262413024902,0.7199816703796387,0.3255549669265747,1.5245351791381836,1.1785389184951782,-0.4450274705886841,-0.3368941843509674,0.6017244458198547,-0.06617555767297745,0.5800585150718689,0.6880130767822266,-0.6142407059669495,0.5668218731880188,-0.37035423517227173,1.664018988609314,-0.02300805039703846,-1.2730625867843628,0.8802554607391357,-0.6808674335479736,1.2237238883972168,1.4282835721969604,-1.2204792499542236,-0.5141574740409851,2.213862180709839,0.28519129753112793,0.037955522537231445,0.22412516176700592,0.02622772380709648,0.5211213231086731,-0.20047956705093384,-0.06099976971745491,1.3172318935394287,-0.7966804504394531,-0.3383576273918152,-0.6516820192337036,1.2557638883590698,-0.35069864988327026,-0.6331720948219299,-1.2887918949127197,0.15798036754131317,1.039741039276123,-0.9318989515304565,-0.004579820670187473,-0.5742411613464355,-1.4305561780929565,0.6248447895050049,0.9087458252906799,0.6383928060531616,-0.579239010810852,-0.35288915038108826,1.3625987768173218,0.05182071402668953,-0.3592910170555115,-1.1669753789901733,-1.9243296384811401,0.04837422072887421,0.5787506103515625,-1.3515639305114746,1.1008617877960205,0.22877910733222961,0.9060654044151306,1.3116141557693481,0.7628155946731567,2.336193323135376,-0.07798250764608383,-0.2039775401353836,-0.6025282144546509,1.452748417854309,0.685608446598053,-0.7110709547996521,0.7416185736656189,0.41873547434806824,-1.629456877708435,1.428592562675476,-0.4772125482559204,-1.1637240648269653,0.7166196703910828,0.7887505292892456,0.7697440385818481,1.067378044128418,0.9485393166542053,0.7750992178916931,-0.5557701587677002,-0.5561872124671936,1.3926910161972046,-0.5533175468444824,-0.688156247138977
external_007,2,2,6,6,,,,,-0.5848996639251709,2.183612823486328,0.362325519323349,-0.43620765209198,-2.7694790363311768,0.8192135691642761,-1.3451647758483887,0.37047284841537476,0.3556857407093048,0.5546265840530396,-1.5262627601623535,-0.6758853793144226,0.5339663028717041,0.6063357591629028,1.513106346130371,-0.7137342095375061,-1.358178973197937,-1.5931915044784546,0.12191860377788544,1.089203119277954,-0.49747082591056824,-0.5925281643867493,0.835028886795044,0.053385838866233826,-0.258344829082489,-0.4924883544445038,0.10412710160017014,-0.2976614832878113,0.5234041810035706,-0.7793449759483337,0.24617300927639008,-0.7933363318443298,-1.2659672498703003,0.7700331211090088,-0.12527137994766235,-0.6653838157653809,-1.1346923112869263,-0.41388392448425293,1.1917957067489624,0.23738130927085876,1.0536024570465088,0.6307317614555359,1.2220728397369385,0.18085315823554993,0.8071413040161133,-1.702688217163086,0.3285476267337799,-1.9996259212493896,0.9149178266525269,2.697021961212158,-0.24550941586494446,1.4710043668746948,0.8850504755973816,-0.22043000161647797,-0.4704921543598175,0.5465999841690063,0.16715827584266663,0.1673000305891037,-0.1277925670146942,-0.34520965814590454,-0.9063217043876648,-1.535893201828003,-0.09735714644193649,0.32514891028404236,-1.4211832284927368,-0.7443501949310303,-1.5969653129577637,0.779864490032196,1.0665700435638428,-0.5425434708595276,-0.11212464421987534,0.31998467445373535,-0.24982041120529175,0.5405873656272888,1.790652871131897,1.0041512250900269,0.8083043694496155,1.8398795127868652,-1.2688724994659424,0.34741634130477905,-1.6517934799194336,1.7437570095062256,0.7348737716674805,-0.07543815672397614,-0.45492395758628845,-0.5659900903701782,-0.27697107195854187,-1.5764950513839722,-0.5002314448356628,-0.5218951106071472,-0.8559077978134155,-0.5383161306381226,-0.26450657844543457,0.23255369067192078,0.8142408132553101,-0.3964042365550995,-1.9775025844573975,-0.2172624170780182,-0.7890313267707825,-0.011261028237640858,-1.4723910093307495,-0.830740749835968,-0.865855872631073,0.30002260208129883,-0.8221140503883362,-0.8370621800422668,-0.35025691986083984,0.24821394681930542,-0.80100417137146,-1.569947361946106,-1.0057778358459473,-0.07975752651691437,0.22052420675754547,1.3923181295394897,-1.280014157295227,-0.8409099578857422,0.78280109167099,-0.8608365058898926,0.30249297618865967,0.6553900241851807,-0.23514416813850403,0.6206472516059875,1.607931137084961,0.6637666821479797,0.6172278523445129,1.337205171585083,1.2680153846740723,1.5069559812545776,-0.5266015529632568,-0.2644912898540497,-0.6553842425346375,-0.3549945056438446,-1.314432978630066,-1.1033037900924683,-0.21799492835998535,-1.675713300704956,-0.6710758805274963,-1.196448802947998,0.8598953485488892,1.0425810813903809,0.4477810263633728,0.6754773855209351,1.3549104928970337,0.7815887928009033,0.4704951047897339,-1.5539360046386719,-1.7197343111038208,-0.037357598543167114,0.9550071358680725,0.1444331854581833,0.19102951884269714,-1.2331550121307373,-0.6749044060707092,1.409455418586731,-0.3649958372116089,-0.30399274826049805,-0.8946254253387451,1.6145706176757812,-0.9368685483932495,0.7380203604698181,-1.4544099569320679,-1.966093897819519,0.13382653892040253,-0.4749065637588501,1.0817632675170898,0.6410914063453674,1.2116199731826782,-0.088897205889225,-0.14801564812660217,-0.16136275231838226,2.245323657989502,-0.46845683455467224,1.2386671304702759,-1.78033447265625,-2.126154661178589,-0.05572616681456566,-0.8998526334762573,-2.211366653442383,1.8704249858856201,1.2082256078720093,1.100389003753662,0.1961883306503296,0.8430646061897278,-0.78303462266922,0.3054434657096863,0.3434775769710541,1.4151360988616943,0.7004051208496094,-0.7451532483100891,-0.807887077331543,1.6775099039077759,-0.8233644962310791,-0.9268128871917725,0.27705636620521545,-1.6056987047195435,-1.4696208238601685,0.7392301559448242,0.5765242576599121,0.45562607049942017,2.365856647491455,0.7928724884986877,1.145597219467163,-1.1132103204727173,-0.2918788194656372,-0.9772510528564453,0.2881999611854553,0.43875885009765625,-0.44031035900115967,-0.028773179277777672,0.6887487769126892,0.3418291509151459,0.6749536395072937,-0.10781879723072052,-0.709795355796814,-1.0017073154449463,-0.8810425400733948,0.6062614917755127,0.49194657802581787,-0.27365726232528687,0.11820728331804276,-1.5566147565841675,0.1104065403342247,0.31680428981781006,-0.9779452085494995,0.46111276745796204,-1.0313280820846558,0.5757052302360535,0.08434826880693436,0.8860172033309937,0.8565803170204163,1.4877774715423584,-0.3998878002166748,0.8568010330200195,-0.29311302304267883,0.06925280392169952,-0.09466942399740219,-0.8659204244613647,0.2043248564004898,1.2192732095718384,-0.2678109407424927,1.1044981479644775,-2.6118369102478027,1.6375471353530884,-1.1490036249160767,0.4661000370979309,1.4435786008834839,-1.4508618116378784,0.38818272948265076,1.366661548614502,0.12553904950618744,-0.099440798163414,0.03935122489929199,0.2650855779647827,0.5701085329055786,0.5703412294387817,-0.6139517426490784,-0.41181811690330505,0.9258833527565002,1.468731164932251,-0.06879577785730362,-0.2903991639614105,0.49328672885894775,1.0174318552017212,0.1951565146446228,0.16476549208164215,0.9458664655685425,0.5232065916061401,1.1083128452301025,0.1284998655319214,-0.1742861568927765,-0.2540455162525177,-1.1690033674240112,0.5828413367271423,-0.48784127831459045,1.5416301488876343,-0.8795434236526489,0.01899223029613495,-0.792398989200592,-0.027690215036273003,-1.0109468698501587,-1.0262480974197388,-0.11530205607414246,0.600104570388794,1.6115320920944214,1.4774030447006226,-1.230163812637329,-0.3111567497253418,2.0300204753875732,-0.5215362906455994,-0.26367396116256714,-0.5277612805366516,0.5616269111633301,0.9831660985946655,0.15849746763706207,-0.6666612029075623,0.8741446137428284,0.19370286166667938,-1.2987258434295654,-0.8947850465774536,1.273379921913147,1.437526822090149,-0.005234770942479372,0.8098750114440918,0.964177668094635,-0.32762888073921204,-0.267765074968338,0.48150694370269775,0.7394500374794006,-0.9519584774971008,-0.25578242540359497,0.750645101070404,1.5378131866455078,-0.24307507276535034,-0.7217609286308289,-0.4986221194267273,-0.4117949604988098,-0.11188392341136932,-1.3174128532409668,0.79338139295578,-2.1169815063476562,-1.6497255563735962,-0.606374204158783,0.5928249359130859,-0.7767253518104553,0.3644765615463257,0.06422682851552963,-1.7041901350021362,1.2373217344284058,-0.15586470067501068,0.07139506191015244,-1.4207757711410522,-0.11368489265441895,0.8800103068351746,-0.2415577471256256,-0.8742665648460388,-0.05466829240322113,-0.02844230644404888,0.8939937353134155,1.1244081258773804,1.1792751550674438,0.04774633049964905,1.7681403160095215,-1.987285852432251,0.6489477157592773,-0.3230564594268799,-1.7625848054885864,-0.9546796083450317,0.23849202692508698,0.2576487958431244,-0.3958550691604614,0.258707731962204,-0.5428833365440369,0.6839035749435425,0.3209870457649231,-1.0942940711975098,0.18687941133975983,0.8374521732330322,-0.7016598582267761,-1.4065898656845093,-0.46109962463378906,0.6482604742050171,-0.44646063446998596,0.6857873201370239,-1.5663431882858276,-0.9574981927871704,0.44209975004196167,0.2846441864967346,-0.2640785574913025,-0.643954336643219,0.8950190544128418,-0.24497845768928528,1.5885039567947388,-0.011399436742067337,0.02334439940750599,-0.5018134117126465,1.1228801012039185,-1.348246693611145,0.7730159759521484,-0.3609277904033661,-1.1871557235717773,0.21009621024131775,-0.8741313815116882,1.3314943313598633,-0.5716625452041626,-1.1211744546890259,-1.2406662702560425,1.565302848815918,0.21775859594345093,-0.46965542435646057,0.6952574253082275,-0.055141378194093704,-0.04157640412449837,0.9912970662117004,0.7465357780456543,-1.6105164289474487,0.05785265937447548,0.8843749761581421,0.32833433151245117,0.16064810752868652,-2.088230609893799,1.0886553525924683,-0.6855296492576599,0.024498799815773964,0.8606398105621338,1.0846282243728638,-0.7734320759773254,0.4433729350566864,-0.4215978682041168,-0.06705058366060257,0.09633193165063858,1.1137959957122803,-0.4374868869781494,1.6364599466323853,0.3758363127708435,-2.319775104522705,-0.027393782511353493,-1.698259711265564,0.3633304238319397,0.02416403964161873,0.03541259467601776,2.2504591941833496,-0.37167301774024963,0.447476327419281,3.162874937057495,1.1382910013198853,0.32029128074645996,0.5342140197753906,-0.15294048190116882,0.8756746053695679,-1.1427210569381714,0.20209023356437683,-0.6835518479347229,0.5125296115875244,1.370241403579712,-1.2820762395858765,0.0782705619931221,0.4817756414413452,-0.5692002773284912,0.22737723588943481,0.8069066405296326,0.29577797651290894,-0.43643176555633545,1.0479533672332764,1.6616671085357666,0.2217954695224762,1.1342638731002808,0.37809205055236816,-1.2187855243682861,0.8886129856109619,1.2113125324249268,1.3243539333343506,-0.06240855157375336,2.7523717880249023,0.6874756217002869,0.06619837135076523,-1.1795315742492676,-0.8269018530845642,-0.5940483808517456,-1.2348253726959229,1.7780895233154297,0.8046045303344727,-2.0844099521636963,0.07496876269578934,0.31850466132164,0.0708065778017044,2.789822578430176,-0.6485652923583984,1.7011927366256714,-0.08415964245796204,2.284045457839966,-2.9756052494049072,0.246278315782547,2.0702178478240967,0.6215599775314331,-1.151779055595398,-1.7593638896942139,-0.7823342084884644,-1.2025763988494873,-1.3591487407684326,1.7244240045547485,0.00244900886900723,-0.9194964170455933,-1.1382713317871094,-1.3836530447006226,0.5579916834831238,0.28772878646850586,-0.8042851686477661,1.701223611831665,-0.906022310256958,-0.6441391110420227,0.21421247720718384,-1.078354835510254,0.43182680010795593,-1.4280145168304443,-0.8479217886924744,1.5929913520812988,0.16540104150772095,0.4139641225337982,-0.530216634273529,0.8350577354431152,-0.12275722622871399,-1.0350611209869385,1.5294440984725952,0.31353580951690674,1.122461199760437,-0.21923214197158813,-0.8696929216384888,0.465467244386673,0.4917195737361908,0.5106396079063416,0.6926002502441406,-0.7029204368591309
external_007,3,3,1,1,,,,,-0.031548283994197845,0.06120920181274414,-1.175100564956665,0.4741719365119934,1.1869932413101196,-1.1561001539230347,0.7559599876403809,0.8673847913742065,-0.9503845572471619,-0.4430936872959137,-1.0932002067565918,-0.5787150859832764,-0.05000516027212143,1.1662185192108154,-0.6389167904853821,-1.5546729564666748,-3.144453525543213,-0.669455885887146,-1.3134511709213257,0.1855768859386444,0.22940883040428162,-1.5869437456130981,0.3622872531414032,-0.21159014105796814,-0.2531895339488983,-0.5205833315849304,0.9604080319404602,0.5945748090744019,0.18721580505371094,1.1509257555007935,0.034727659076452255,0.1386842280626297,0.5353032350540161,-0.27040866017341614,-1.2020134925842285,1.7624421119689941,0.9430162310600281,-1.2994451522827148,-0.983210563659668,-1.065647840499878,-1.523662805557251,0.3620772659778595,1.5021332502365112,0.3871373236179352,1.559173822402954,-0.41828057169914246,0.26294994354248047,-0.9266088008880615,0.02148818038403988,1.0740805864334106,0.7135391235351562,1.020333170890808,-0.4077194035053253,0.9126467108726501,1.4502094984054565,0.5635606050491333,-1.3901026248931885,0.28233087062835693,0.24427375197410583,-0.6720740795135498,-1.0307908058166504,-0.8123496174812317,1.1488991975784302,0.133000448346138,1.6709131002426147,-1.7969812154769897,0.42249029874801636,1.6001644134521484,1.8313895463943481,-0.5391252040863037,1.5913389921188354,1.0939476490020752,1.1823418140411377,0.21409419178962708,1.0101650953292847,0.9151400923728943,-0.6023938655853271,-2.701969623565674,1.1420493125915527,1.0666005611419678,0.7525205016136169,-0.39425837993621826,-0.39590662717819214,-1.5634472370147705,1.633657693862915,-0.07298077642917633,0.8563446402549744,-0.33466804027557373,-2.3374335765838623,0.8084841370582581,1.2334047555923462,1.8779157400131226,-0.09382124245166779,-0.4584825336933136,0.17136503756046295,-1.021878957748413,-0.8579713106155396,0.6293350458145142,-0.21860943734645844,-0.514232873916626,0.4038391411304474,-0.33505958318710327,2.421006917953491,-0.2807919383049011,1.5631731748580933,0.7112323045730591,0.9837439656257629,0.36769378185272217,-0.13749834895133972,0.010680397972464561,-0.5949349403381348,0.38030263781547546,0.9791191220283508,-2.4287469387054443,-1.2608678340911865,-1.192746639251709,0.6534838676452637,0.6256422996520996,-0.4127427041530609,1.5051230192184448,-0.3805132806301117,0.5392331480979919,0.7962271571159363,-0.16402636468410492,1.0381741523742676,-0.3727914094924927,-0.02278255484998226,0.1068529412150383,0.7518011331558228,1.4330090284347534,-0.7637661695480347,-1.385660171508789,0.6588919758796692,-2.102142572402954,0.04546729475259781,0.5744307637214661,-1.7590779066085815,-0.8453161120414734,-0.31303608417510986,-0.12168508023023605,-0.00769667187705636,0.39564380049705505,0.688626766204834,-1.5850903987884521,1.244320273399353,-0.2904343008995056,-0.420784592628479,1.1086152791976929,-0.5412417650222778,-0.8793929815292358,-1.8903918266296387,1.2576904296875,-1.7862833738327026,-1.3181192874908447,-2.129535436630249,-0.400470107793808,-1.8693331480026245,1.172728180885315,-0.6886393427848816,-1.1681476831436157,0.376589298248291,-1.0778056383132935,-0.12638169527053833,0.9097656011581421,-0.8043226003646851,-0.3713499903678894,-0.7407312989234924,-0.3124482333660126,3.058244228363037,-2.132016181945801,0.9132354259490967,0.05843329802155495,-0.6964106559753418,1.017385721206665,1.250881552696228,-0.899063229560852,-0.08744936436414719,-0.6093332767486572,0.45194464921951294,0.1797603964805603,-0.016661709174513817,0.43184176087379456,0.5121949315071106,1.4878520965576172,-0.8607677221298218,-0.06379280984401703,2.4499683380126953,-0.6353915333747864,1.2334612607955933,-0.9766994714736938,0.7288018465042114,-0.1716233491897583,0.41229933500289917,-0.28911373019218445,1.2993841171264648,-0.03515147417783737,-0.1648632138967514,0.4791719615459442,-0.7062833905220032,-2.337151288986206,-1.499901533126831,-0.7160862684249878,1.7214343547821045,2.2826266288757324,-1.3427600860595703,0.1651173084974289,-0.6776679754257202,0.25557029247283936,-1.281361699104309,0.3627074360847473,-0.7961888909339905,-1.1894246339797974,-0.6543493866920471,-2.0137836933135986,0.6774953007698059,-0.8554006814956665,1.4988749027252197,0.8406949043273926,1.239857792854309,-0.40105143189430237,1.3357075452804565,1.3308161497116089,-0.3856564164161682,0.07839076220989227,1.4700212478637695,0.17595922946929932,-0.7000632882118225,1.1046056747436523,1.2326174974441528,-0.8823437094688416,0.4603503346443176,0.03832125663757324,1.1537294387817383,-0.7287846803665161,1.347110629081726,0.9519617557525635,-0.3603188991546631,-0.5356196165084839,-1.1668930053710938,1.4495441913604736,-0.9580230116844177,-0.175369530916214,1.9371836185455322,0.8258548974990845,0.33431845903396606,0.2780214846134186,-0.1808987855911255,-1.3719282150268555,0.6038219928741455,-1.119710087776184,2.1849236488342285,-1.6150990724563599,-0.268503874540329,0.05498294159770012,-0.5876845717430115,0.05707917362451553,0.7222613096237183,1.4950851202011108,0.18080343306064606,0.025038190186023712,0.4027367830276489,0.08422105759382248,-0.7168459296226501,0.040753357112407684,1.2918392419815063,0.1431102603673935,0.03843493387103081,-0.09799204766750336,0.6168913245201111,0.45629680156707764,0.4913807511329651,-0.29328691959381104,-2.333848476409912,-0.5975662469863892,-0.010712964460253716,-0.8937023878097534,0.7110864520072937,-0.8794202208518982,-2.2081592082977295,0.8545138239860535,-0.21427637338638306,0.02612116187810898,-1.7712295055389404,-0.3433455228805542,-0.13034871220588684,0.08765396475791931,0.9254475235939026,-0.6262408494949341,-0.21545156836509705,1.726082682609558,-0.1338851898908615,1.4668214321136475,-1.7448538541793823,-0.16149362921714783,1.2593971490859985,0.720376193523407,1.5477298498153687,-0.3506869971752167,0.15304884314537048,-2.358124256134033,-1.3977652788162231,0.5454681515693665,-0.6159595251083374,0.8680385947227478,-0.29201793670654297,0.5614666938781738,-0.8364298343658447,-1.0424683094024658,1.103857398033142,0.5834086537361145,0.02098129689693451,0.858301043510437,0.9116426110267639,1.1625646352767944,-0.3175058662891388,-0.73744797706604,0.058508362621068954,0.36533939838409424,-1.3192375898361206,-2.2180938720703125,0.41840964555740356,1.2432430982589722,0.13738827407360077,-0.24751032888889313,0.19548946619033813,0.22301429510116577,-1.0050830841064453,0.2862229347229004,1.1993898153305054,0.414797306060791,-0.13071006536483765,0.7691026329994202,0.6231764554977417,-1.0145100355148315,1.317828893661499,0.8376774191856384,0.35817211866378784,0.4851641356945038,0.24246513843536377,-0.7238754630088806,0.6608736515045166,0.05663847178220749,1.144811987876892,-0.5080966353416443,-0.7498021125793457,-0.8623407483100891,1.0602115392684937,-0.02465793304145336,-0.5320582985877991,-1.2514047622680664,2.563607692718506,0.11093810200691223,-0.6154108643531799,-0.45654717087745667,1.182572364807129,-0.2758467197418213,-1.0647366046905518,-0.08064784854650497,1.6436951160430908,1.2591170072555542,1.3334894180297852,-0.6659995913505554,-1.4331506490707397,-0.3723447024822235,-0.40882015228271484,0.009585711173713207,0.9248308539390564,-0.555880069732666,-0.766947865486145,-1.090603232383728,0.7338306903839111,0.41381222009658813,0.8998035192489624,-1.2797125577926636,-0.4766428768634796,1.2905677556991577,0.4058549702167511,1.1823517084121704,0.9656844139099121,0.736086368560791,-0.6109398007392883,-0.11331922560930252,0.31800076365470886,2.349477529525757,0.7420441508293152,-0.09401681274175644,0.1863120049238205,0.4332145154476166,-0.19203658401966095,0.7334977388381958,1.1022053956985474,2.464376211166382,1.5283843278884888,0.316668301820755,-0.6139001250267029,-1.202221393585205,1.0004322528839111,1.2351657152175903,1.501362919807434,0.32856327295303345,0.035010844469070435,-0.06248017027974129,0.8425256013870239,-2.0470082759857178,-1.7295222282409668,-2.4695372581481934,-0.43460389971733093,-0.11662141978740692,1.2031800746917725,0.04995222017168999,0.5360220670700073,-0.1145191565155983,-0.486399382352829,-1.0923548936843872,0.2565051019191742,-0.02934654802083969,-1.0551460981369019,-0.5569242238998413,-1.0675641298294067,-0.8491215705871582,1.2451430559158325,0.3768380582332611,0.5277676582336426,-0.9477155804634094,-0.5727207064628601,1.2226295471191406,-0.6814265251159668,-0.6220430731773376,0.6682459115982056,1.1779752969741821,1.235700249671936,0.22298921644687653,-0.61705082654953,0.36231616139411926,0.5138391256332397,-0.21563021838665009,-0.23049646615982056,0.7650587558746338,1.9678089618682861,-1.6729660034179688,0.04308445751667023,-1.5772446393966675,0.07454518228769302,-0.3062364161014557,2.0406811237335205,0.5439479351043701,-1.060897946357727,1.5632236003875732,-1.5408605337142944,0.697685718536377,1.8188974857330322,0.4074164628982544,0.7313299179077148,0.5527210235595703,-0.11198563128709793,0.3121848404407501,-1.4735240936279297,0.6005008816719055,-0.6590688824653625,0.880500078201294,-0.28837764263153076,-0.07104357331991196,-0.18054714798927307,-0.7780471444129944,0.5643892884254456,-0.22536322474479675,-1.0114095211029053,-0.4285597503185272,-0.15097743272781372,0.4272140562534332,0.22892732918262482,-0.4424971342086792,0.3015405535697937,2.2613306045532227,-0.2525215148925781,-2.8057565689086914,-1.129307746887207,-0.6428930163383484,1.1946995258331299,1.235345721244812,-0.48093441128730774,0.22958101332187653,-0.09912338107824326,-1.2467257976531982,0.09042777121067047,0.3706578314304352,-1.0632675886154175,0.23911577463150024,1.1330499649047852,-1.7121058702468872,0.19328774511814117,0.7898007035255432,1.0319814682006836,-1.1110270023345947,-0.386394202709198,0.04081453010439873,1.0612690448760986,1.9697997570037842,0.22968751192092896,1.28706955909729,-0.17324285209178925,-0.3497827351093292,1.0867127180099487,1.6399534940719604,1.885516881942749,-0.7149609923362732,-1.0010888576507568,1.6759920120239258,-2.121446132659912,-0.20922459661960602,-0.6182796359062195,1.4104775190353394
external_007,4,4,0,0,,,,,-0.9891213774681091,-0.3677866458892822,1.2879252433776855,0.19397442042827606,0.9202309250831604,0.5771037936210632,-0.6364636421203613,0.5419521927833557,-0.3165954649448395,-0.3223891258239746,0.09716732054948807,-1.525930404663086,1.1921660900115967,-0.6710896492004395,1.0002694129943848,0.13632112741470337,1.532033085823059,-0.6599693894386292,-0.31179484724998474,0.33776912093162537,-2.2074711322784424,0.827921450138092,1.5416303873062134,1.1268067359924316,0.7547696232795715,-0.1459778994321823,1.2819021940231323,1.0740306377410889,0.39262083172798157,0.005114312749356031,-0.36176687479019165,-1.2302322387695312,1.2262293100357056,-2.172043800354004,-0.37014734745025635,0.16438007354736328,0.8598811626434326,1.7616612911224365,0.993323802947998,-0.29152143001556396,0.7281275391578674,-1.261600375175476,1.429938554763794,-0.15647532045841217,-0.6737591624259949,-0.6390600800514221,-0.06136132776737213,-0.3927849233150482,2.289909839630127,-0.7181811332702637,0.03260774165391922,0.0280498955398798,0.028272122144699097,0.05534586310386658,-0.48156285285949707,-0.5834075212478638,-0.8621605038642883,-1.488174557685852,0.21630683541297913,0.9843763709068298,-0.5430841445922852,-0.5586150288581848,-0.3164828419685364,-0.46063974499702454,-1.436269760131836,1.3651080131530762,0.43899989128112793,-0.7116950154304504,0.29717177152633667,-0.43845728039741516,-0.2116374373435974,0.3639638423919678,0.9529644846916199,1.519524097442627,1.7039093971252441,-0.24885870516300201,-0.4997485876083374,0.0995974987745285,0.12834320962429047,-0.734221875667572,-0.6204752922058105,0.8132737278938293,1.6418009996414185,-0.22650085389614105,-0.6479651927947998,-0.2833712100982666,-0.9951313734054565,-0.2728717625141144,0.4224441349506378,-0.08134295791387558,1.2345776557922363,0.15088802576065063,0.4811195135116577,-0.14875753223896027,1.3156657218933105,-1.2223455905914307,-0.3035913407802582,-1.1736886501312256,0.826273500919342,0.8503223061561584,-0.5157675743103027,1.6581133604049683,-0.29726260900497437,-1.3833770751953125,-0.281204491853714,0.3600205183029175,-0.23439201712608337,2.2655205726623535,0.8553866744041443,1.7312794923782349,1.38588547706604,-1.6857846975326538,-0.37775859236717224,-2.728485584259033,-0.6463967561721802,1.1151041984558105,-0.8432111144065857,-0.6366884112358093,0.32613417506217957,0.7873165011405945,-0.3563133776187897,-0.2558121681213379,0.808981716632843,0.25405868887901306,-0.2852867841720581,0.3145034909248352,0.0761215090751648,0.2546329200267792,2.0012311935424805,-0.3052079379558563,-0.5397628545761108,1.4136308431625366,-0.7057006359100342,1.719889521598816,-0.19419780373573303,0.07383951544761658,0.7336282730102539,1.2131097316741943,0.99699866771698,-0.2036353498697281,-0.36642882227897644,0.3474726378917694,0.13471907377243042,-0.6422731280326843,0.4107280671596527,0.9941196441650391,0.16650670766830444,1.5639997720718384,0.41030213236808777,-0.15581299364566803,0.1002148911356926,-0.5601098537445068,-1.0312979221343994,0.476528525352478,-0.8532503247261047,-0.35829198360443115,-0.08920005708932877,0.3851041793823242,0.4611620008945465,0.05422354117035866,-1.9313076734542847,-0.20659269392490387,-0.7755393981933594,-0.11134754866361618,0.9913261532783508,0.8048242926597595,0.22033026814460754,0.5057597756385803,-1.4884082078933716,0.19486746191978455,0.6245107650756836,-0.7061272859573364,0.4049876034259796,-0.38082626461982727,1.0005067586898804,1.1084188222885132,-0.5347830653190613,1.4629225730895996,-0.19008029997348785,2.0619444847106934,-0.4915542006492615,0.0637563169002533,0.21318942308425903,-0.7507960200309753,-1.7253795862197876,-0.7996039390563965,1.0796056985855103,-0.3286665976047516,-0.3267066180706024,1.5168019533157349,0.4935377836227417,0.7023083567619324,0.8494486808776855,-0.9074179530143738,0.12472619116306305,0.15021689236164093,-0.15886661410331726,-1.0930317640304565,0.4637797474861145,-1.6584628820419312,-0.9370667934417725,-0.8093381524085999,-0.4121316969394684,0.841092586517334,1.6566804647445679,1.7222952842712402,0.8062593936920166,0.4396938681602478,-2.3365488052368164,1.1301196813583374,2.628946542739868,0.45287641882896423,0.2340393215417862,0.6986958384513855,0.7286285758018494,0.13491633534431458,-0.3738158643245697,0.361759215593338,-1.3717892169952393,-1.8824265003204346,1.3609386682510376,-0.4580613374710083,0.7159554958343506,1.5545940399169922,1.220280408859253,-0.5533927083015442,0.3247540295124054,-1.166087031364441,-0.10457310080528259,1.0460169315338135,0.03202623873949051,-2.8513693809509277,-2.251263380050659,-0.8015855550765991,1.3332417011260986,0.1990852653980255,0.1412731260061264,-1.3159672021865845,0.14643165469169617,-2.275172233581543,0.3418321907520294,1.179240345954895,-0.8175873160362244,1.0843961238861084,-0.7198953628540039,0.14737474918365479,-0.13593615591526031,0.09386751800775528,1.5269536972045898,0.8812159895896912,-0.6777214407920837,-2.7649621963500977,0.8948034048080444,0.7639095187187195,0.16551153361797333,-0.5581907629966736,1.5984078645706177,-1.7872118949890137,-0.7843783497810364,-1.4663453102111816,0.3713071048259735,-0.466542512178421,2.1111903190612793,0.017806433141231537,-0.23880700767040253,0.5727003812789917,-0.7321968078613281,-1.083909273147583,0.5350059866905212,-0.48901838064193726,0.9759745597839355,0.3347799479961395,0.11642102897167206,0.06845036894083023,-0.08631031960248947,0.40752851963043213,-0.3972259759902954,-1.9577046632766724,0.07780009508132935,-0.46059712767601013,-1.3769205808639526,0.7806849479675293,-0.3802459239959717,-1.745234489440918,-0.07476547360420227,-0.6747657060623169,-1.7015472650527954,0.31218665838241577,-1.0505590438842773,0.718370795249939,-0.8974894285202026,0.9770463705062866,0.4254235029220581,0.10860989987850189,-0.7558354139328003,0.9048106074333191,0.5035555362701416,-0.36239925026893616,0.5806372761726379,-1.0255820751190186,-1.2797658443450928,-0.09556646645069122,0.07111677527427673,0.4279066026210785,0.06504682451486588,1.2407134771347046,-1.2905036211013794,0.5683262348175049,0.22564303874969482,1.3562109470367432,0.12491592764854431,0.3163037896156311,1.7612839937210083,0.796290934085846,0.6085557341575623,-0.3901331126689911,0.13895000517368317,-1.65241277217865,-0.8437253832817078,0.6469933390617371,-1.7791686058044434,0.09289197623729706,0.017834285274147987,0.38909879326820374,-1.6962976455688477,-2.0308609008789062,1.1095620393753052,0.11071978509426117,0.410162091255188,1.6166315078735352,0.1738380491733551,-1.9641488790512085,-0.31208837032318115,0.8183743357658386,-0.42541080713272095,-0.3028718829154968,-0.6015574932098389,1.467875599861145,1.2433022260665894,-1.8098024129867554,1.9042868614196777,-0.7740824818611145,2.027639150619507,-1.313934326171875,1.1016167402267456,-0.5664299726486206,-0.1557210087776184,0.8833740949630737,-0.7396563291549683,0.3153126835823059,0.30746421217918396,1.1912660598754883,1.3666571378707886,1.8790143728256226,0.30387017130851746,0.4087216854095459,-0.5685938596725464,-0.7668818235397339,-1.3211699724197388,-0.2262834757566452,0.15640239417552948,0.0202170442789793,0.5733221173286438,-1.3561959266662598,1.7326041460037231,0.30710914731025696,1.0932036638259888,0.3452475368976593,-0.8765148520469666,-0.3258652985095978,-3.29828143119812,0.2138517051935196,-0.06930606067180634,1.2130144834518433,-1.75596022605896,-0.07858525216579437,-0.3054075539112091,-1.2631874084472656,-1.468159556388855,-1.1755062341690063,0.9838877320289612,0.9852950572967529,-1.4399460554122925,-0.16673170030117035,0.473388135433197,0.3256599009037018,-1.5184773206710815,-0.6016743779182434,-1.4357355833053589,1.0164110660552979,2.5953056812286377,-0.049870990216732025,-2.1456823348999023,0.818562924861908,1.5568360090255737,1.4786722660064697,0.16464033722877502,0.5298151969909668,0.09485342353582382,0.72055584192276,0.9414142966270447,-0.7535775899887085,-0.5865079164505005,-0.3416694700717926,-0.23029954731464386,0.19173063337802887,1.1186591386795044,-1.306570053100586,0.9185060262680054,-0.19701112806797028,-2.8661203384399414,-0.3987094461917877,-0.2728864252567291,0.5482101440429688,0.5895594358444214,-0.006365565583109856,-0.8144441246986389,0.9527671337127686,-0.6771303415298462,-1.18844735622406,-0.641492486000061,-0.5386043190956116,-0.11411254853010178,-0.4479534327983856,-0.36437103152275085,0.7416238784790039,0.7965007424354553,0.5328525304794312,-0.3094445765018463,-0.6672574281692505,-0.23177394270896912,-0.1466948688030243,0.8414470553398132,-0.2802177965641022,-1.2047231197357178,-0.8372746109962463,1.7641854286193848,-0.9326608180999756,-1.2637968063354492,-0.2916695177555084,1.761065125465393,0.09644075483083725,0.292648583650589,-1.576562762260437,-1.4988263845443726,-0.0023707207292318344,-0.4576115906238556,0.38966089487075806,-1.1024755239486694,1.0530489683151245,1.3574738502502441,-1.546905279159546,0.2451375275850296,-0.27922359108924866,1.4426064491271973,0.22582939267158508,0.9532519578933716,-0.07627028971910477,0.31418919563293457,2.132826805114746,2.0763609409332275,-1.6964341402053833,0.3812437057495117,0.2412891834974289,-1.0737849473953247,-0.768006443977356,0.18493811786174774,0.9560027718544006,0.5231130719184875,-0.41873449087142944,-1.061165452003479,-2.0932910442352295,1.5400108098983765,-0.5567458868026733,-0.8594311475753784,0.3376271724700928,-0.08589544892311096,-0.016658196225762367,0.6571694612503052,-0.4862176477909088,-1.0576905012130737,-0.14253942668437958,0.06558599323034286,-1.088433861732483,-1.1051316261291504,-1.0473827123641968,0.8158212304115295,1.3844119310379028,1.2734802961349487,-0.9131233096122742,-0.6937015652656555,-1.277215838432312,1.8366472721099854,-0.48422735929489136,-0.037547532469034195,-0.47593268752098083,0.167486310005188,-1.0486187934875488,-0.6203747987747192,-0.9121115803718567,-2.365151882171631,0.25446605682373047,0.738013505935669,0.969976544380188,1.5590616464614868,0.9497351050376892,-0.07225852459669113,0.5429736375808716,-0.5311269760131836,0.7926580905914307,-0.2873019278049469,-2.325063705444336
external_007,5,5,11,11,,,,,-0.586065411567688,-0.1743427962064743,1.1616226434707642,0.47815316915512085,-0.5623887777328491,1.1716333627700806,-0.2972150444984436,-0.6402931213378906,0.7969908714294434,0.916841983795166,1.157454013824463,-0.5470218658447266,-0.18007583916187286,-1.4470547437667847,-1.8226534128189087,-1.0161824226379395,-0.6094833016395569,0.2197793573141098,-0.420507550239563,-1.8223577737808228,0.4996349513530731,-0.10093284398317337,0.6199404001235962,0.6616705656051636,-1.9679251909255981,0.8839896321296692,-0.9447857141494751,0.08926210552453995,0.6343130469322205,0.9228399991989136,0.6730338335037231,0.15997599065303802,0.3663419783115387,1.5705866813659668,0.5608609318733215,-0.8680556416511536,-0.8308027982711792,1.0255448818206787,-0.25380074977874756,1.1657425165176392,0.47184935212135315,-0.5077293515205383,-1.228410243988037,-0.071333147585392,0.012245549820363522,0.09400343149900436,-1.1491527557373047,-0.30546510219573975,0.3052598536014557,-0.8955185413360596,-0.3742679953575134,0.8689495325088501,-0.41526293754577637,0.9947059750556946,-0.1404085010290146,0.34026506543159485,1.4529868364334106,0.9948272109031677,1.349914789199829,-0.9014166593551636,0.21514029800891876,0.7940621972084045,0.7123695611953735,0.07998204976320267,1.3304638862609863,-0.019135141745209694,0.37274858355522156,0.42887479066848755,0.051899492740631104,0.010995160788297653,1.3407379388809204,0.8739547729492188,1.944952368736267,0.044871892780065536,-0.7559207081794739,-0.36574092507362366,-0.5269449353218079,0.940625786781311,-0.985673189163208,-0.9650129079818726,-0.1267227679491043,-2.555428981781006,-0.29698804020881653,-0.2040020227432251,-2.5641305446624756,1.4865593910217285,-0.7227060198783875,0.7727503180503845,2.326082468032837,-0.1360194981098175,-1.0284289121627808,0.6924678087234497,0.18005229532718658,0.3125096559524536,-0.46905645728111267,-1.064104676246643,0.4009079933166504,-0.4178658723831177,0.4469437897205353,-0.5224559307098389,-1.539627194404602,-1.1830686330795288,0.5757808685302734,0.8885159492492676,-0.08054287731647491,-0.6050518155097961,-0.03247901424765587,-1.027964472770691,-0.8163691163063049,0.02435920014977455,1.0478359460830688,0.23962564766407013,0.7645553350448608,-0.1824801117181778,0.7132192850112915,-0.3545316457748413,1.6722328662872314,0.3308662474155426,0.0745670422911644,2.8472254276275635,2.271848678588867,-1.0179880857467651,1.0968841314315796,2.1633129119873047,0.393526554107666,-1.3410261869430542,-0.49126362800598145,-1.0703738927841187,0.7551835179328918,0.8197299838066101,-0.9607133865356445,0.7460997700691223,-0.9546497464179993,0.4168733060359955,-0.5679255723953247,1.1352919340133667,-0.08102422952651978,0.8083389401435852,-1.3327183723449707,1.1305530071258545,-1.0932530164718628,0.34287163615226746,1.355303406715393,-0.16546714305877686,1.219193935394287,0.13218891620635986,1.1021664142608643,1.5519808530807495,0.6495196223258972,1.1976267099380493,2.263948917388916,1.3771857023239136,-0.96478670835495,0.4399777948856354,0.32438579201698303,-0.8318492770195007,-0.2833977937698364,-2.017289638519287,-1.6744343042373657,0.6834785342216492,-0.2549155652523041,-0.20567427575588226,-0.22225730121135712,-0.4791005849838257,-0.7712038159370422,0.6618545651435852,-0.17199979722499847,1.3112443685531616,-1.0745501518249512,0.6045593619346619,0.7996633648872375,-0.27310869097709656,-0.8133440017700195,1.1238434314727783,0.9425365924835205,0.9516881704330444,0.8164777755737305,0.4226921796798706,-0.2020852416753769,1.4394633769989014,1.9603601694107056,1.1245230436325073,1.775228500366211,-1.6345422267913818,0.039873380213975906,-0.40450388193130493,-1.066035270690918,-2.054711103439331,0.8404223322868347,0.9566436409950256,-0.7741744518280029,-0.4415414333343506,-0.7604777812957764,-0.9493903517723083,-0.17013035714626312,2.0934791564941406,-0.2718934416770935,0.2217579483985901,0.31887125968933105,-0.2647852897644043,0.5891175866127014,0.02210540510714054,0.5701638460159302,-0.2249920666217804,-1.0964657068252563,0.06863029301166534,0.5531989932060242,-1.0546462535858154,-1.4788413047790527,0.24002760648727417,-0.18893106281757355,-0.21904440224170685,-0.3102268576622009,-0.8792878985404968,1.616146206855774,-2.2985172271728516,-0.04081893339753151,-0.18873704969882965,0.5903332829475403,0.3666897714138031,0.2927412688732147,-1.1155058145523071,-1.1793136596679688,0.49258795380592346,-0.371969074010849,-0.18824170529842377,1.0250298976898193,0.467081218957901,-1.6662487983703613,1.087790846824646,-0.5299269556999207,-0.3481817841529846,-0.21948853135108948,2.1686460971832275,0.8937506079673767,1.8833115100860596,0.35997501015663147,-0.00011485545110190287,1.0657669305801392,0.2723744213581085,-0.1426299810409546,-0.8279395699501038,0.9615891575813293,1.231441617012024,-0.1995260864496231,-3.9223861694335938,0.5533345937728882,-1.0744869709014893,-0.7988420128822327,-0.6233420372009277,0.34903523325920105,1.1937768459320068,-1.0505032539367676,2.301669120788574,0.9268907308578491,0.6433934569358826,-0.7667749524116516,0.743341326713562,-0.005580409895628691,2.334998607635498,1.7589499950408936,0.2895723581314087,0.745689868927002,-1.503767967224121,1.0695182085037231,-0.01831977628171444,-0.40880459547042847,0.26354891061782837,0.7579633593559265,0.8930292725563049,-1.1918476819992065,-1.4486839771270752,-0.27895021438598633,0.20044557750225067,-1.608797311782837,0.438347190618515,0.3698456585407257,-1.4259953498840332,0.9410209059715271,-1.1171571016311646,-2.0985732078552246,-1.4152292013168335,-1.3558783531188965,0.10295485705137253,1.5172219276428223,0.7295055985450745,1.2653052806854248,0.7759878635406494,-1.1771303415298462,-0.7653753757476807,-0.015299225226044655,0.26257961988449097,-0.6900622844696045,-1.1149318218231201,-1.8122248649597168,0.18379676342010498,0.45287516713142395,1.6542083024978638,-0.8188493251800537,-0.28137245774269104,-1.0674349069595337,-0.3666976988315582,0.7176134586334229,0.18683511018753052,0.357314795255661,-0.002898475620895624,-0.5856003165245056,0.6866522431373596,-0.9980595707893372,0.6802912950515747,-0.5345495939254761,0.06157109513878822,-1.1103510856628418,-1.7001553773880005,0.5880042910575867,1.8608977794647217,2.087853193283081,2.3537039756774902,0.42783764004707336,0.462666779756546,-1.0643820762634277,0.4352390468120575,0.36833253502845764,-0.7092768549919128,1.7848471403121948,0.3131530284881592,-0.4353472590446472,-1.6716076135635376,2.51315975189209,0.6091599464416504,0.4390393793582916,-0.6424543857574463,0.276605486869812,0.14383086562156677,0.15209941565990448,-1.4069936275482178,-0.271159827709198,0.19852380454540253,-0.08406873792409897,-0.8687701225280762,-1.559122920036316,1.1546202898025513,1.3200583457946777,0.49604085087776184,-0.07279260456562042,-0.4751823842525482,-1.1091158390045166,-0.8257841467857361,0.22145207226276398,0.09303557127714157,-0.26506170630455017,-0.7834510803222656,-1.0977237224578857,0.11467944830656052,-1.1165138483047485,1.1698448657989502,0.5457683801651001,2.054936170578003,0.43284550309181213,0.6456815600395203,0.26622065901756287,0.23469586670398712,0.6752627491950989,-0.13922119140625,1.891358733177185,0.543795645236969,0.27697697281837463,-2.265962839126587,-1.4133096933364868,-0.07187347859144211,0.05853913351893425,-0.49985119700431824,0.8804847598075867,-0.2941915690898895,-0.027173392474651337,-1.1609578132629395,-0.9742377400398254,-0.3226179778575897,-1.1506093740463257,1.5355195999145508,-1.0379080772399902,-0.4396107494831085,0.4601878523826599,-0.13730621337890625,0.5319064259529114,-0.17304907739162445,-0.14009638130664825,-1.143022060394287,0.8780732750892639,1.0212327241897583,-0.15458670258522034,1.2698214054107666,0.2794554531574249,0.5538209676742554,-0.9876135587692261,-2.152893543243408,0.7644509673118591,2.609589099884033,-0.591776967048645,0.0696512833237648,0.6764562129974365,1.2793411016464233,0.10837824642658234,0.7128422856330872,-0.6319774985313416,-0.3029385209083557,1.061119794845581,0.2614339292049408,-2.1894876956939697,-0.002597642596811056,1.8542665243148804,-0.07902182638645172,0.3941032588481903,-2.131474018096924,-0.35442185401916504,0.11351693421602249,0.1333656758069992,-0.4724739193916321,-0.3396480977535248,-1.5249353647232056,-1.0193440914154053,-0.3936760127544403,0.5010949969291687,-0.020851606503129005,0.7000851631164551,1.142542839050293,-0.5020936131477356,-0.5129059553146362,1.4978562593460083,-0.9889002442359924,-1.294777512550354,-0.7507343888282776,-1.4996733665466309,-1.3628942966461182,-1.1586248874664307,-0.4481029510498047,0.5595395565032959,-0.1589062213897705,-0.8034031391143799,1.9034678936004639,-0.37109678983688354,0.4518054723739624,0.47358646988868713,-0.30916425585746765,0.4579911231994629,0.21737980842590332,-0.45907893776893616,-0.5848522782325745,-0.032550763338804245,-1.8173819780349731,0.047003768384456635,0.15258443355560303,0.3540615439414978,0.3129945695400238,-0.3595031201839447,1.420269250869751,-0.9978703856468201,-0.8333120942115784,-0.04785354435443878,1.6388521194458008,1.0840309858322144,1.1979594230651855,1.669319987297058,-0.8432533144950867,-2.7746171951293945,0.5994751453399658,-1.044590711593628,-0.27347221970558167,0.7340400815010071,-1.097652554512024,-0.33934497833251953,1.0235161781311035,1.1688164472579956,0.8465006351470947,1.3776055574417114,-0.506001353263855,-0.1961086541414261,0.9704706072807312,0.9465845227241516,1.0263464450836182,1.07833993434906,2.1281278133392334,0.6706972122192383,-1.0569648742675781,0.38944461941719055,-0.49296316504478455,-0.780562698841095,1.2107934951782227,1.805984616279602,0.4885299801826477,0.4496070146560669,-0.39039647579193115,-0.4203515350818634,-1.6906956434249878,0.7935541868209839,-0.4307762384414673,0.6177235245704651,0.47535422444343567,-1.9771379232406616,1.2519859075546265,0.3322128355503082,0.43564778566360474,-1.386138916015625,0.15343929827213287,-0.7434564232826233,0.04592899978160858,2.018439292907715,-1.0484780073165894,-1.6340352296829224,-0.06633059680461884,-0.019103409722447395,0.3458438217639923
external_007,6,6,16,16,,,,,-2.2681667804718018,0.5233930945396423,0.69499671459198,-0.0072727627120912075,0.1397574096918106,-0.5585783123970032,-0.3853185176849365,-1.3692030906677246,-0.6149225234985352,-0.5033942461013794,1.0231473445892334,-0.43227893114089966,-0.32380321621894836,1.1474255323410034,-0.6664677262306213,-0.717915952205658,0.26344403624534607,1.021520733833313,0.924545168876648,-0.43538275361061096,-0.8087056875228882,-0.9317206144332886,-0.16660051047801971,0.2899680733680725,2.551866292953491,-0.054721999913454056,-0.20707044005393982,-0.8713935613632202,0.992240846157074,-0.8735722899436951,0.8587223291397095,-0.9987990856170654,-0.4908958673477173,0.8663935661315918,0.29927510023117065,0.3890816867351532,-1.2927732467651367,-0.2569631338119507,0.6899471879005432,-0.22954536974430084,-0.545605480670929,0.5803565382957458,-0.17100970447063446,1.433793306350708,0.6972315907478333,-1.0216141939163208,0.05165129527449608,1.477989912033081,-1.2938443422317505,-0.5020951628684998,0.0538269504904747,-0.8441116213798523,-0.9732428193092346,-0.5706444382667542,-1.3201755285263062,1.6459100246429443,-0.3566891551017761,-0.6696115732192993,0.9419692754745483,0.4369048774242401,0.16133521497249603,-0.4247504472732544,-1.7410171031951904,-0.8710511326789856,0.5241185426712036,-0.9396563172340393,-0.25395065546035767,-0.5376734733581543,-1.0905756950378418,-0.5570662617683411,0.7179672718048096,-0.44635009765625,0.9789935350418091,1.5172113180160522,-1.1482527256011963,-0.12881037592887878,0.690485954284668,-0.5185682773590088,0.6237528920173645,0.11538805067539215,-1.056906819343567,0.2037196308374405,0.8249145746231079,-0.3619321584701538,-1.3930076360702515,0.6849789619445801,0.921682596206665,-0.5800372362136841,-0.4755246043205261,0.5127995610237122,0.3888971209526062,1.6594427824020386,-0.6928144097328186,-0.6780901551246643,0.6500009894371033,0.9460377097129822,0.17763149738311768,-0.13984908163547516,1.01369047164917,0.4256141781806946,0.5338883996009827,-0.5193642973899841,0.18871182203292847,1.2243683338165283,0.9459519982337952,-0.574878454208374,-0.7787982821464539,-1.5948634147644043,-0.21934334933757782,0.8316149711608887,-1.6946754455566406,-0.5641634464263916,-1.0608283281326294,0.3938032388687134,-1.1443804502487183,-0.10437239706516266,-0.949504017829895,1.3470735549926758,-0.03964649885892868,-1.3447397947311401,-0.42866620421409607,0.7206662893295288,1.3598664999008179,1.5048704147338867,-0.24193771183490753,0.3938365876674652,1.306966781616211,0.15897956490516663,1.6332533359527588,1.9473700523376465,-0.19370584189891815,0.7432019114494324,-0.4769653081893921,1.2366219758987427,0.8195772767066956,-0.30874335765838623,0.08927899599075317,1.3529772758483887,-0.5481206178665161,1.9729262590408325,-0.4370424151420593,-0.324381947517395,1.079034686088562,-0.35674601793289185,0.7880401015281677,0.9382556676864624,-0.19312167167663574,0.34393197298049927,-0.412030965089798,1.0313786268234253,-0.6216937899589539,0.2907833755016327,1.353330135345459,0.3142907917499542,-0.8803183436393738,1.0229697227478027,-1.3282138109207153,0.5279792547225952,-0.295769602060318,0.7462460398674011,1.0154627561569214,1.6606086492538452,0.38907474279403687,1.6705423593521118,0.685437023639679,1.0916537046432495,-1.2062187194824219,0.3587985336780548,1.909340262413025,0.2677616477012634,-0.5665507316589355,0.262012779712677,0.09328785538673401,-0.04853232204914093,-0.4947173595428467,-0.29514655470848083,-0.5196806192398071,-1.182124137878418,0.3249772787094116,1.383040189743042,-1.3250107765197754,-1.090398907661438,-0.6602159738540649,-0.3514149487018585,-0.513481080532074,0.3019315004348755,-0.47613438963890076,0.5855250954627991,-0.46543633937835693,-3.188194990158081,1.3427040576934814,0.5370168089866638,-3.3482706546783447,-0.21584436297416687,0.6555054187774658,-0.14601732790470123,0.9492789506912231,0.23496121168136597,-2.3562824726104736,-2.4473047256469727,1.114820957183838,1.748242735862732,-0.6580933928489685,0.4454326927661896,0.08834921568632126,-0.22057078778743744,-0.6968733072280884,0.21904882788658142,-0.756550669670105,-0.12883737683296204,-1.0363645553588867,-1.7455254793167114,0.11272399872541428,-0.18945249915122986,0.5223696231842041,0.24997514486312866,0.17079021036624908,-0.42625221610069275,-0.2698606550693512,0.5508004426956177,-0.800004243850708,0.6196789741516113,0.31233763694763184,-0.3967590034008026,-0.4850636422634125,-0.002127998974174261,-0.5405771136283875,0.5991089940071106,0.8013312816619873,0.5215528607368469,0.5735735297203064,-1.4908019304275513,1.5408190488815308,1.3291449546813965,0.26745131611824036,-0.2607003152370453,-1.1691128015518188,0.019173888489603996,0.06663036346435547,0.33051925897598267,0.30929896235466003,-1.2628368139266968,0.5132030844688416,-0.6437753438949585,0.0825127512216568,-0.4132004380226135,-0.4617704749107361,-0.7155988216400146,-0.1877521276473999,-0.7680902481079102,0.4109129011631012,1.5189939737319946,0.8971768021583557,0.7657029628753662,-0.63579922914505,0.18536803126335144,0.9737720489501953,0.2815443277359009,0.22097128629684448,0.24678142368793488,0.04807098209857941,-0.8241028189659119,-0.7718939185142517,1.7588096857070923,-0.11348709464073181,-0.48511871695518494,-1.3334492444992065,1.1140397787094116,0.396456778049469,0.24680766463279724,-0.224972665309906,-0.6048498749732971,0.2542731761932373,-2.02384090423584,-0.10373379290103912,0.2889247238636017,-0.6174176931381226,-0.6769275665283203,-1.0148025751113892,-0.10075553506612778,0.3222925066947937,1.2358876466751099,1.3086875677108765,0.9150059223175049,0.12163800001144409,-0.7202161550521851,0.534316897392273,0.008303948678076267,0.624825656414032,1.84896981716156,0.16582117974758148,-1.076146125793457,-1.480180025100708,1.2106914520263672,0.7311198115348816,-1.513670802116394,-0.003171724732965231,-1.4983115196228027,-0.6598365306854248,0.39515379071235657,0.18895578384399414,1.3120940923690796,-1.4411115646362305,-2.3025643825531006,1.6581051349639893,0.1623433530330658,0.25167757272720337,0.2122049778699875,-1.0141582489013672,-1.9858554601669312,-0.6056596636772156,-1.2120534181594849,-1.722003698348999,-0.22556374967098236,-0.9529778361320496,1.1710788011550903,1.0841890573501587,0.6765603423118591,-0.46505841612815857,1.2209832668304443,-1.912042498588562,1.5767284631729126,0.30206871032714844,-0.12576021254062653,0.17517000436782837,0.4552377462387085,0.5099679827690125,0.17631903290748596,1.3586701154708862,0.4530360996723175,0.11517919600009918,-1.5850309133529663,-1.4086215496063232,-0.37045198678970337,-0.028473148122429848,-0.2385668307542801,-0.25432923436164856,1.0843747854232788,1.3055850267410278,-0.8102009892463684,-1.9433693885803223,0.6382289528846741,-1.0446974039077759,-0.9755222797393799,-0.5348399877548218,1.5895817279815674,1.4071838855743408,0.3676692843437195,-0.23461131751537323,1.4229085445404053,0.8119145631790161,-1.1185853481292725,1.3419489860534668,-0.5982961058616638,-0.488381028175354,-0.18209458887577057,-0.16678841412067413,-1.1511911153793335,1.990081548690796,-1.6018517017364502,-0.0958293080329895,-1.4228346347808838,1.2563241720199585,-0.43827831745147705,0.3707451820373535,-0.6534488797187805,-0.6126372814178467,-0.5420330762863159,-0.15993118286132812,0.35937410593032837,0.023933827877044678,-1.0889263153076172,1.3504071235656738,-0.03978964313864708,-0.3966200351715088,0.14642518758773804,0.07155374437570572,0.3056471049785614,0.12714307010173798,0.9129384160041809,-0.5432761907577515,-0.08141167461872101,0.16040518879890442,0.45975345373153687,2.0936079025268555,0.09034322202205658,-0.5002062916755676,0.6646814942359924,1.3014824390411377,-0.48486459255218506,0.4992906451225281,-0.2039281129837036,1.6828248500823975,0.5761831998825073,-0.7242774963378906,-0.1815139204263687,0.019406335428357124,1.4154928922653198,-0.4041924774646759,-0.06398838013410568,0.9712842106819153,-1.6605002880096436,1.3827334642410278,3.2973854541778564,0.2901906371116638,0.5538416504859924,1.0540804862976074,0.15319284796714783,-0.007977969013154507,-0.3253364562988281,0.939845860004425,-0.9499329924583435,0.07095879316329956,0.8020641207695007,0.4521975517272949,-0.16709479689598083,-0.8649676442146301,0.25245577096939087,-0.22716224193572998,-0.8056528568267822,-1.2661519050598145,-1.4441776275634766,-0.6557942628860474,-1.0090844631195068,-0.22218617796897888,-0.7303451299667358,-0.45461294054985046,-0.9670934677124023,1.3262313604354858,-1.0545438528060913,1.1680043935775757,0.17334727942943573,1.2416764497756958,-1.5344237089157104,0.8467574119567871,-0.22635005414485931,-0.754321277141571,-0.9615053534507751,-0.9995863437652588,0.6113724112510681,0.36138230562210083,0.057376209646463394,0.9552814364433289,0.04841875657439232,-0.5103094577789307,-0.0720626562833786,-1.8056188821792603,-0.0476352833211422,-1.436539888381958,0.20193526148796082,-0.6535256505012512,0.3393876552581787,0.20852097868919373,0.7519791126251221,-0.5633987188339233,0.02608860656619072,0.39951595664024353,0.358775794506073,-0.6351875066757202,0.4863777458667755,-0.15802082419395447,-0.8220618367195129,-1.9560636281967163,0.69390469789505,1.4912123680114746,-0.903076708316803,-0.9611161947250366,1.1340911388397217,0.8852457404136658,0.9087995290756226,0.29307985305786133,0.3133615255355835,-0.6380940079689026,2.2168161869049072,-0.45969900488853455,-0.9068184494972229,0.8079653978347778,-0.4249648153781891,-0.5491467118263245,1.400100588798523,-0.4816540777683258,1.3382508754730225,0.3509049415588379,-1.1860369443893433,0.043569933623075485,-0.3161446750164032,-0.29525795578956604,0.18121881783008575,-1.9551856517791748,0.017371680587530136,0.8762508034706116,0.3799944818019867,-0.5626189708709717,1.1896603107452393,0.31457197666168213,0.5641828775405884,0.09186431765556335,1.5846245288848877,2.0075864791870117,-1.7879109382629395,-1.4104490280151367,-0.26591727137565613,-0.5597229599952698,1.5769760608673096,-0.13964088261127472,-0.2511875033378601,-1.6820735931396484,0.06285198777914047,0.6614370942115784,0.7147318124771118,-1.2734111547470093,0.14873772859573364
external_007,7,7,64,64,,,,,0.8556115627288818,0.7635986804962158,-0.4860205352306366,-1.1743228435516357,1.2777469158172607,-0.24211180210113525,1.1156352758407593,1.2185825109481812,-0.4380137324333191,-0.15740762650966644,1.1839159727096558,-0.309977263212204,0.3220251500606537,-0.6118733882904053,-0.911189615726471,0.5248299241065979,-0.22163325548171997,-1.6251691579818726,1.4739619493484497,-0.14339083433151245,-1.2304949760437012,-0.14023633301258087,-0.7031407356262207,-0.24741743505001068,0.9721212983131409,1.5833908319473267,0.18183790147304535,-0.6033241152763367,-0.3749370574951172,0.13788573443889618,0.21258823573589325,-0.28947556018829346,0.9688084125518799,-0.38722795248031616,0.5633121728897095,0.2980479300022125,3.359236240386963,0.31681913137435913,-0.0781465470790863,0.17552310228347778,0.7664313912391663,0.38715171813964844,0.08867909014225006,-0.8185445666313171,-0.01747969724237919,0.20785008370876312,0.12312518805265427,0.030775943771004677,-0.1091424971818924,0.02417384646832943,0.20780900120735168,-1.7741448879241943,-1.3234230279922485,0.42134329676628113,-0.113138847053051,0.7004637122154236,0.0877566859126091,-0.11265592277050018,-0.3435470163822174,-0.9579173922538757,-0.6086171865463257,1.0378448963165283,-0.4077482521533966,0.6131916642189026,1.3887834548950195,2.324632167816162,-2.09826922416687,2.0838003158569336,-0.2264142632484436,-0.9085144400596619,0.8492819666862488,0.0804111659526825,-0.8578930497169495,1.0481210947036743,0.5487555265426636,0.566912055015564,1.759116530418396,1.0686240196228027,0.5273337960243225,-0.29913875460624695,0.7410579919815063,-0.024071525782346725,1.633446455001831,-1.9405009746551514,-1.5922125577926636,0.14457933604717255,-0.06879565864801407,-0.15837855637073517,-0.4607158601284027,2.0261240005493164,0.2845469117164612,-0.21290063858032227,-0.8567429780960083,0.4410493075847626,0.2398027926683426,-0.037473469972610474,-0.19073039293289185,1.7341197729110718,0.3833789527416229,-0.14353787899017334,0.07905665785074234,-0.1668093353509903,1.1730471849441528,-0.06505009531974792,0.42932915687561035,-0.21097467839717865,0.9117141962051392,-2.7137198448181152,1.3640505075454712,-1.1859514713287354,-0.09262709319591522,1.8133057355880737,-2.541249990463257,-0.2762801945209503,1.2072091102600098,0.15437105298042297,0.9421982169151306,0.2797934114933014,1.3593559265136719,1.4463322162628174,-0.3403566777706146,-0.2087177336215973,-1.8804532289505005,-0.045088693499565125,0.13036760687828064,-0.2986062467098236,-0.04093615338206291,-0.05821328982710838,-0.07705225795507431,-1.0216970443725586,-1.2408860921859741,-0.18617887794971466,0.2753458619117737,-1.616213321685791,-0.0631711333990097,0.3893844485282898,0.5806708335876465,0.9025328755378723,-0.6951950192451477,-0.28193044662475586,-0.2561958134174347,2.1065187454223633,-1.252601146697998,-0.3016268014907837,0.9795993566513062,-2.4234726428985596,-0.015735244378447533,-1.0305302143096924,1.235700249671936,1.2755402326583862,-2.910486936569214,-0.5044074058532715,0.47944074869155884,1.3071799278259277,-0.43071821331977844,0.4548491835594177,2.6670470237731934,0.35798192024230957,-1.8041578531265259,0.9456840753555298,-1.920259714126587,-0.20768924057483673,1.3095016479492188,2.0966687202453613,0.7976981997489929,-1.090372085571289,1.0692178010940552,-0.051800113171339035,-0.43391963839530945,-0.9078242182731628,0.43572136759757996,-0.22402167320251465,1.818367838859558,2.210622549057007,-0.19507256150245667,-0.5859737396240234,0.631413459777832,-0.4407258927822113,0.7421750426292419,-0.0636458769440651,-1.4293866157531738,0.9348770380020142,-1.612565279006958,1.5576387643814087,-1.265802264213562,-0.9524175524711609,1.1581830978393555,-0.8756342530250549,0.23302729427814484,0.06562753021717072,0.5286231637001038,1.154499888420105,-0.2733193635940552,-1.9315433502197266,-1.4099583625793457,-0.629943311214447,0.8559070825576782,-0.3200283348560333,-1.688394546508789,-0.6342705488204956,-0.008764933794736862,-0.23058293759822845,-0.6130107641220093,-0.2775219976902008,-1.4306076765060425,-0.2614363729953766,-1.745708703994751,0.3891766667366028,-0.21861599385738373,1.0356961488723755,-0.12440741807222366,0.9415860772132874,-0.7527217864990234,-0.18980957567691803,0.3188483715057373,-1.5196729898452759,-1.6860932111740112,1.89425790309906,-0.1495235562324524,-0.8685202598571777,1.8120975494384766,-0.37156015634536743,-0.30455607175827026,0.38591423630714417,-0.8067910075187683,-0.7305769324302673,-1.6287213563919067,1.1041353940963745,0.6015306711196899,-0.6849992871284485,-0.49217331409454346,-1.7663813829421997,-1.6984585523605347,1.8031868934631348,-0.34577879309654236,0.729004442691803,0.8688765168190002,0.251437246799469,1.7934279441833496,-0.15148644149303436,0.22188249230384827,0.15105533599853516,-0.06136445701122284,2.8738722801208496,0.10177858173847198,0.08937704563140869,-0.2738180458545685,-0.6557044982910156,-0.13394221663475037,-0.5908737778663635,-0.38930973410606384,0.5349733233451843,-1.2185611724853516,0.6314740777015686,0.4374130964279175,0.13259804248809814,0.44144952297210693,-0.6887206435203552,-0.3658648133277893,-0.2356492578983307,1.7770377397537231,1.4458695650100708,0.3051379323005676,0.21058838069438934,-0.792896568775177,-0.08057799190282822,-0.8433131575584412,0.8608219623565674,-1.3401395082473755,-1.2199060916900635,-0.17586295306682587,1.140246868133545,-3.194132089614868,0.4973889887332916,-0.7497879266738892,-1.1385563611984253,-0.3792424499988556,-1.5946499109268188,-0.6895750164985657,-0.2622886002063751,-0.580058753490448,1.8346203565597534,1.4230231046676636,0.9142827987670898,0.07077769935131073,-1.5725314617156982,-0.5785837769508362,-1.3147270679473877,1.5274171829223633,0.4191497564315796,0.6440067291259766,0.7961685061454773,1.146798849105835,1.882683277130127,0.1634189337491989,1.1613867282867432,-0.7948856353759766,1.7135727405548096,1.6278767585754395,-0.1474141627550125,1.210159420967102,0.40652957558631897,0.48005911707878113,-0.41312098503112793,-0.6432679891586304,-0.0003076377615798265,2.1479949951171875,-0.08467549830675125,0.6982597708702087,-0.07950583100318909,-0.15671288967132568,1.2365334033966064,-0.2018500417470932,-0.9576040506362915,-1.3592169284820557,-0.14938823878765106,0.6391687393188477,-0.5086811184883118,-0.9524568915367126,-0.5025160312652588,0.6166388392448425,-0.4824725389480591,-1.045164942741394,-1.0359123945236206,-0.7225772738456726,0.20885159075260162,-0.6674484610557556,1.0690033435821533,-0.15861381590366364,2.4257097244262695,-0.08345522731542587,0.23652473092079163,0.33168870210647583,0.5889198780059814,-1.5021979808807373,0.3160473704338074,1.0014935731887817,0.1136711835861206,0.18180948495864868,-0.20160311460494995,-0.32705190777778625,-0.3318164050579071,0.8029034733772278,0.29729408025741577,0.11771690100431442,0.5003560185432434,0.04041536897420883,0.17808595299720764,-1.3629546165466309,1.5986788272857666,-0.6632636189460754,-0.9883043169975281,-0.8062678575515747,-0.6358703970909119,-0.9045431613922119,0.4364425539970398,0.5301048159599304,-1.4768632650375366,-0.5688910484313965,1.1068873405456543,2.3682734966278076,-0.13674405217170715,-0.305658757686615,0.27778178453445435,-0.9195315837860107,0.9389453530311584,0.6259478330612183,0.6887198090553284,0.6259702444076538,0.2923499047756195,-0.5861786603927612,-0.5237550139427185,0.20310840010643005,0.2090490758419037,-1.3245207071304321,-0.8078221082687378,-0.6368210315704346,1.034369707107544,-0.040861576795578,-1.1596053838729858,0.45983368158340454,0.3949131965637207,-0.24998237192630768,-0.20917390286922455,-0.9425843954086304,-1.1776357889175415,-0.02392750419676304,-0.5820249915122986,0.4136253893375397,0.9934649467468262,1.5320866107940674,-0.011102515272796154,-0.025073884055018425,-0.46005403995513916,1.6972343921661377,1.278056263923645,0.27464279532432556,0.9317378997802734,-0.47775623202323914,-1.5741099119186401,-0.4735943078994751,0.06379904597997665,0.5778602957725525,0.6682971119880676,0.9993256330490112,0.1824830025434494,-0.2010098546743393,0.7161781191825867,2.8432857990264893,0.4008958339691162,1.6841838359832764,0.08226584643125534,0.6108304858207703,-0.25102904438972473,1.04023277759552,0.36383718252182007,-0.794252872467041,1.3792438507080078,-0.34236493706703186,-1.882676124572754,0.2138914316892624,-0.27783164381980896,1.1002650260925293,0.34616386890411377,-1.2538669109344482,0.6045687794685364,-0.011388769373297691,-1.5567502975463867,-0.7434104084968567,0.7671530842781067,-1.4018080234527588,-1.3586838245391846,3.256415367126465,1.0463721752166748,-1.2086682319641113,-0.4646797180175781,-0.10892398655414581,-1.7874228954315186,0.2911498248577118,-1.4510082006454468,0.19370144605636597,0.004850959405303001,-1.822874903678894,-1.0833135843276978,1.43390953540802,-2.691744327545166,0.8235926032066345,0.2368406057357788,-0.8905272483825684,-0.8499137759208679,-0.31643009185791016,-0.5484893918037415,0.880305290222168,-0.5242156386375427,1.8666057586669922,-0.06018359586596489,1.157641887664795,-0.5682422518730164,0.49228692054748535,0.9949410557746887,-0.1809869259595871,-0.19677980244159698,-0.3961469829082489,0.5312306880950928,-0.7974219918251038,-0.3625582754611969,0.3844028115272522,-0.3981727361679077,1.5696133375167847,0.16834838688373566,-0.43417295813560486,0.19152997434139252,0.3219768702983856,-0.05704685300588608,-0.6849464774131775,-0.9253863096237183,-0.5995762944221497,1.7558867931365967,0.4584309160709381,-0.5048114061355591,0.3570486307144165,-0.09424431622028351,-0.48583105206489563,-1.085968017578125,-0.19588817656040192,-0.277917742729187,-1.9304224252700806,1.5527143478393555,-2.3617665767669678,0.264163613319397,-0.7088253498077393,0.052200011909008026,0.46876761317253113,-0.12260974198579788,-1.531282663345337,-0.625572681427002,-1.0204707384109497,0.5112238526344299,-0.263467013835907,0.20539702475070953,0.3340698480606079,0.38873544335365295,0.3658476769924164,0.4897894859313965,-1.0629976987838745,-0.6178051233291626,-0.09412215650081635,0.5377450585365295,-0.7619382739067078,-0.43368834257125854,-1.3971248865127563,-0.7575326561927795
external_007,8,8,16,16,,,,,-2.2681667804718018,0.5233930945396423,0.69499671459198,-0.0072727627120912075,0.1397574096918106,-0.5585783123970032,-0.3853185176849365,-1.3692030906677246,-0.6149225234985352,-0.5033942461013794,1.0231473445892334,-0.43227893114089966,-0.32380321621894836,1.1474255323410034,-0.6664677262306213,-0.717915952205658,0.26344403624534607,1.021520733833313,0.924545168876648,-0.43538275361061096,-0.8087056875228882,-0.9317206144332886,-0.16660051047801971,0.2899680733680725,2.551866292953491,-0.054721999913454056,-0.20707044005393982,-0.8713935613632202,0.992240846157074,-0.8735722899436951,0.8587223291397095,-0.9987990856170654,-0.4908958673477173,0.8663935661315918,0.29927510023117065,0.3890816867351532,-1.2927732467651367,-0.2569631338119507,0.6899471879005432,-0.22954536974430084,-0.545605480670929,0.5803565382957458,-0.17100970447063446,1.433793306350708,0.6972315907478333,-1.0216141939163208,0.05165129527449608,1.477989912033081,-1.2938443422317505,-0.5020951628684998,0.0538269504904747,-0.8441116213798523,-0.9732428193092346,-0.5706444382667542,-1.3201755285263062,1.6459100246429443,-0.3566891551017761,-0.6696115732192993,0.9419692754745483,0.4369048774242401,0.16133521497249603,-0.4247504472732544,-1.7410171031951904,-0.8710511326789856,0.5241185426712036,-0.9396563172340393,-0.25395065546035767,-0.5376734733581543,-1.0905756950378418,-0.5570662617683411,0.7179672718048096,-0.44635009765625,0.9789935350418091,1.5172113180160522,-1.1482527256011963,-0.12881037592887878,0.690485954284668,-0.5185682773590088,0.6237528920173645,0.11538805067539215,-1.056906819343567,0.2037196308374405,0.8249145746231079,-0.3619321584701538,-1.3930076360702515,0.6849789619445801,0.921682596206665,-0.5800372362136841,-0.4755246043205261,0.5127995610237122,0.3888971209526062,1.6594427824020386,-0.6928144097328186,-0.6780901551246643,0.6500009894371033,0.9460377097129822,0.17763149738311768,-0.13984908163547516,1.01369047164917,0.4256141781806946,0.5338883996009827,-0.5193642973899841,0.18871182203292847,1.2243683338165283,0.9459519982337952,-0.574878454208374,-0.7787982821464539,-1.5948634147644043,-0.21934334933757782,0.8316149711608887,-1.6946754455566406,-0.5641634464263916,-1.0608283281326294,0.3938032388687134,-1.1443804502487183,-0.10437239706516266,-0.949504017829895,1.3470735549926758,-0.03964649885892868,-1.3447397947311401,-0.42866620421409607,0.7206662893295288,1.3598664999008179,1.5048704147338867,-0.24193771183490753,0.3938365876674652,1.306966781616211,0.15897956490516663,1.6332533359527588,1.9473700523376465,-0.19370584189891815,0.7432019114494324,-0.4769653081893921,1.2366219758987427,0.8195772767066956,-0.30874335765838623,0.08927899599075317,1.3529772758483887,-0.5481206178665161,1.9729262590408325,-0.4370424151420593,-0.324381947517395,1.079034686088562,-0.35674601793289185,0.7880401015281677,0.9382556676864624,-0.19312167167663574,0.34393197298049927,-0.412030965089798,1.0313786268234253,-0.6216937899589539,0.2907833755016327,1.353330135345459,0.3142907917499542,-0.8803183436393738,1.0229697227478027,-1.3282138109207153,0.5279792547225952,-0.295769602060318,0.7462460398674011,1.0154627561569214,1.6606086492538452,0.38907474279403687,1.6705423593521118,0.685437023639679,1.0916537046432495,-1.2062187194824219,0.3587985336780548,1.909340262413025,0.2677616477012634,-0.5665507316589355,0.262012779712677,0.09328785538673401,-0.04853232204914093,-0.4947173595428467,-0.29514655470848083,-0.5196806192398071,-1.182124137878418,0.3249772787094116,1.383040189743042,-1.3250107765197754,-1.090398907661438,-0.6602159738540649,-0.3514149487018585,-0.513481080532074,0.3019315004348755,-0.47613438963890076,0.5855250954627991,-0.46543633937835693,-3.188194990158081,1.3427040576934814,0.5370168089866638,-3.3482706546783447,-0.21584436297416687,0.6555054187774658,-0.14601732790470123,0.9492789506912231,0.23496121168136597,-2.3562824726104736,-2.4473047256469727,1.114820957183838,1.748242735862732,-0.6580933928489685,0.4454326927661896,0.08834921568632126,-0.22057078778743744,-0.6968733072280884,0.21904882788658142,-0.756550669670105,-0.12883737683296204,-1.0363645553588867,-1.7455254793167114,0.11272399872541428,-0.18945249915122986,0.5223696231842041,0.24997514486312866,0.17079021036624908,-0.42625221610069275,-0.2698606550693512,0.5508004426956177,-0.800004243850708,0.6196789741516113,0.31233763694763184,-0.3967590034008026,-0.4850636422634125,-0.002127998974174261,-0.5405771136283875,0.5991089940071106,0.8013312816619873,0.5215528607368469,0.5735735297203064,-1.4908019304275513,1.5408190488815308,1.3291449546813965,0.26745131611824036,-0.2607003152370453,-1.1691128015518188,0.019173888489603996,0.06663036346435547,0.33051925897598267,0.30929896235466003,-1.2628368139266968,0.5132030844688416,-0.6437753438949585,0.0825127512216568,-0.4132004380226135,-0.4617704749107361,-0.7155988216400146,-0.1877521276473999,-0.7680902481079102,0.4109129011631012,1.5189939737319946,0.8971768021583557,0.7657029628753662,-0.63579922914505,0.18536803126335144,0.9737720489501953,0.2815443277359009,0.22097128629684448,0.24678142368793488,0.04807098209857941,-0.8241028189659119,-0.7718939185142517,1.7588096857070923,-0.11348709464073181,-0.48511871695518494,-1.3334492444992065,1.1140397787094116,0.396456778049469,0.24680766463279724,-0.224972665309906,-0.6048498749732971,0.2542731761932373,-2.02384090423584,-0.10373379290103912,0.2889247238636017,-0.6174176931381226,-0.6769275665283203,-1.0148025751113892,-0.10075553506612778,0.3222925066947937,1.2358876466751099,1.3086875677108765,0.9150059223175049,0.12163800001144409,-0.7202161550521851,0.534316897392273,0.008303948678076267,0.624825656414032,1.84896981716156,0.16582117974758148,-1.076146125793457,-1.480180025100708,1.2106914520263672,0.7311198115348816,-1.513670802116394,-0.003171724732965231,-1.4983115196228027,-0.6598365306854248,0.39515379071235657,0.18895578384399414,1.3120940923690796,-1.4411115646362305,-2.3025643825531006,1.6581051349639893,0.1623433530330658,0.25167757272720337,0.2122049778699875,-1.0141582489013672,-1.9858554601669312,-0.6056596636772156,-1.2120534181594849,-1.722003698348999,-0.22556374967098236,-0.9529778361320496,1.1710788011550903,1.0841890573501587,0.6765603423118591,-0.46505841612815857,1.2209832668304443,-1.912042498588562,1.5767284631729126,0.30206871032714844,-0.12576021254062653,0.17517000436782837,0.4552377462387085,0.5099679827690125,0.17631903290748596,1.3586701154708862,0.4530360996723175,0.11517919600009918,-1.5850309133529663,-1.4086215496063232,-0.37045198678970337,-0.028473148122429848,-0.2385668307542801,-0.25432923436164856,1.0843747854232788,1.3055850267410278,-0.8102009892463684,-1.9433693885803223,0.6382289528846741,-1.0446974039077759,-0.9755222797393799,-0.5348399877548218,1.5895817279815674,1.4071838855743408,0.3676692843437195,-0.23461131751537323,1.4229085445404053,0.8119145631790161,-1.1185853481292725,1.3419489860534668,-0.5982961058616638,-0.488381028175354,-0.18209458887577057,-0.16678841412067413,-1.1511911153793335,1.990081548690796,-1.6018517017364502,-0.0958293080329895,-1.4228346347808838,1.2563241720199585,-0.43827831745147705,0.3707451820373535,-0.6534488797187805,-0.6126372814178467,-0.5420330762863159,-0.15993118286132812,0.35937410593032837,0.023933827877044678,-1.0889263153076172,1.3504071235656738,-0.03978964313864708,-0.3966200351715088,0.14642518758773804,0.07155374437570572,0.3056471049785614,0.12714307010173798,0.9129384160041809,-0.5432761907577515,-0.08141167461872101,0.16040518879890442,0.45975345373153687,2.0936079025268555,0.09034322202205658,-0.5002062916755676,0.6646814942359924,1.3014824390411377,-0.48486459255218506,0.4992906451225281,-0.2039281129837036,1.6828248500823975,0.5761831998825073,-0.7242774963378906,-0.1815139204263687,0.019406335428357124,1.4154928922653198,-0.4041924774646759,-0.06398838013410568,0.9712842106819153,-1.6605002880096436,1.3827334642410278,3.2973854541778564,0.2901906371116638,0.5538416504859924,1.0540804862976074,0.15319284796714783,-0.007977969013154507,-0.3253364562988281,0.939845860004425,-0.9499329924583435,0.07095879316329956,0.8020641207695007,0.4521975517272949,-0.16709479689598083,-0.8649676442146301,0.25245577096939087,-0.22716224193572998,-0.8056528568267822,-1.2661519050598145,-1.4441776275634766,-0.6557942628860474,-1.0090844631195068,-0.22218617796897888,-0.7303451299667358,-0.45461294054985046,-0.9670934677124023,1.3262313604354858,-1.0545438528060913,1.1680043935775757,0.17334727942943573,1.2416764497756958,-1.5344237089157104,0.8467574119567871,-0.22635005414485931,-0.754321277141571,-0.9615053534507751,-0.9995863437652588,0.6113724112510681,0.36138230562210083,0.057376209646463394,0.9552814364433289,0.04841875657439232,-0.5103094577789307,-0.0720626562833786,-1.8056188821792603,-0.0476352833211422,-1.436539888381958,0.20193526148796082,-0.6535256505012512,0.3393876552581787,0.20852097868919373,0.7519791126251221,-0.5633987188339233,0.02608860656619072,0.39951595664024353,0.358775794506073,-0.6351875066757202,0.4863777458667755,-0.15802082419395447,-0.8220618367195129,-1.9560636281967163,0.69390469789505,1.4912123680114746,-0.903076708316803,-0.9611161947250366,1.1340911388397217,0.8852457404136658,0.9087995290756226,0.29307985305786133,0.3133615255355835,-0.6380940079689026,2.2168161869049072,-0.45969900488853455,-0.9068184494972229,0.8079653978347778,-0.4249648153781891,-0.5491467118263245,1.400100588798523,-0.4816540777683258,1.3382508754730225,0.3509049415588379,-1.1860369443893433,0.043569933623075485,-0.3161446750164032,-0.29525795578956604,0.18121881783008575,-1.9551856517791748,0.017371680587530136,0.8762508034706116,0.3799944818019867,-0.5626189708709717,1.1896603107452393,0.31457197666168213,0.5641828775405884,0.09186431765556335,1.5846245288848877,2.0075864791870117,-1.7879109382629395,-1.4104490280151367,-0.26591727137565613,-0.5597229599952698,1.5769760608673096,-0.13964088261127472,-0.2511875033378601,-1.6820735931396484,0.06285198777914047,0.6614370942115784,0.7147318124771118,-1.2734111547470093,0.14873772859573364
external_007,9,9,0,0,,,,,-0.9891213774681091,-0.3677866458892822,1.2879252433776855,0.19397442042827606,0.9202309250831604,0.5771037936210632,-0.6364636421203613,0.5419521927833557,-0.3165954649448395,-0.3223891258239746,0.09716732054948807,-1.525930404663086,1.1921660900115967,-0.6710896492004395,1.0002694129943848,0.13632112741470337,1.532033085823059,-0.6599693894386292,-0.31179484724998474,0.33776912093162537,-2.2074711322784424,0.827921450138092,1.5416303873062134,1.1268067359924316,0.7547696232795715,-0.1459778994321823,1.2819021940231323,1.0740306377410889,0.39262083172798157,0.005114312749356031,-0.36176687479019165,-1.2302322387695312,1.2262293100357056,-2.172043800354004,-0.37014734745025635,0.16438007354736328,0.8598811626434326,1.7616612911224365,0.993323802947998,-0.29152143001556396,0.7281275391578674,-1.261600375175476,1.429938554763794,-0.15647532045841217,-0.6737591624259949,-0.6390600800514221,-0.06136132776737213,-0.3927849233150482,2.289909839630127,-0.7181811332702637,0.03260774165391922,0.0280498955398798,0.028272122144699097,0.05534586310386658,-0.48156285285949707,-0.5834075212478638,-0.8621605038642883,-1.488174557685852,0.21630683541297913,0.9843763709068298,-0.5430841445922852,-0.5586150288581848,-0.3164828419685364,-0.46063974499702454,-1.436269760131836,1.3651080131530762,0.43899989128112793,-0.7116950154304504,0.29717177152633667,-0.43845728039741516,-0.2116374373435974,0.3639638423919678,0.9529644846916199,1.519524097442627,1.7039093971252441,-0.24885870516300201,-0.4997485876083374,0.0995974987745285,0.12834320962429047,-0.734221875667572,-0.6204752922058105,0.8132737278938293,1.6418009996414185,-0.22650085389614105,-0.6479651927947998,-0.2833712100982666,-0.9951313734054565,-0.2728717625141144,0.4224441349506378,-0.08134295791387558,1.2345776557922363,0.15088802576065063,0.4811195135116577,-0.14875753223896027,1.3156657218933105,-1.2223455905914307,-0.3035913407802582,-1.1736886501312256,0.826273500919342,0.8503223061561584,-0.5157675743103027,1.6581133604049683,-0.29726260900497437,-1.3833770751953125,-0.281204491853714,0.3600205183029175,-0.23439201712608337,2.2655205726623535,0.8553866744041443,1.7312794923782349,1.38588547706604,-1.6857846975326538,-0.37775859236717224,-2.728485584259033,-0.6463967561721802,1.1151041984558105,-0.8432111144065857,-0.6366884112358093,0.32613417506217957,0.7873165011405945,-0.3563133776187897,-0.2558121681213379,0.808981716632843,0.25405868887901306,-0.2852867841720581,0.3145034909248352,0.0761215090751648,0.2546329200267792,2.0012311935424805,-0.3052079379558563,-0.5397628545761108,1.4136308431625366,-0.7057006359100342,1.719889521598816,-0.19419780373573303,0.07383951544761658,0.7336282730102539,1.2131097316741943,0.99699866771698,-0.2036353498697281,-0.36642882227897644,0.3474726378917694,0.13471907377243042,-0.6422731280326843,0.4107280671596527,0.9941196441650391,0.16650670766830444,1.5639997720718384,0.41030213236808777,-0.15581299364566803,0.1002148911356926,-0.5601098537445068,-1.0312979221343994,0.476528525352478,-0.8532503247261047,-0.35829198360443115,-0.08920005708932877,0.3851041793823242,0.4611620008945465,0.05422354117035866,-1.9313076734542847,-0.20659269392490387,-0.7755393981933594,-0.11134754866361618,0.9913261532783508,0.8048242926597595,0.22033026814460754,0.5057597756385803,-1.4884082078933716,0.19486746191978455,0.6245107650756836,-0.7061272859573364,0.4049876034259796,-0.38082626461982727,1.0005067586898804,1.1084188222885132,-0.5347830653190613,1.4629225730895996,-0.19008029997348785,2.0619444847106934,-0.4915542006492615,0.0637563169002533,0.21318942308425903,-0.7507960200309753,-1.7253795862197876,-0.7996039390563965,1.0796056985855103,-0.3286665976047516,-0.3267066180706024,1.5168019533157349,0.4935377836227417,0.7023083567619324,0.8494486808776855,-0.9074179530143738,0.12472619116306305,0.15021689236164093,-0.15886661410331726,-1.0930317640304565,0.4637797474861145,-1.6584628820419312,-0.9370667934417725,-0.8093381524085999,-0.4121316969394684,0.841092586517334,1.6566804647445679,1.7222952842712402,0.8062593936920166,0.4396938681602478,-2.3365488052368164,1.1301196813583374,2.628946542739868,0.45287641882896423,0.2340393215417862,0.6986958384513855,0.7286285758018494,0.13491633534431458,-0.3738158643245697,0.361759215593338,-1.3717892169952393,-1.8824265003204346,1.3609386682510376,-0.4580613374710083,0.7159554958343506,1.5545940399169922,1.220280408859253,-0.5533927083015442,0.3247540295124054,-1.166087031364441,-0.10457310080528259,1.0460169315338135,0.03202623873949051,-2.8513693809509277,-2.251263380050659,-0.8015855550765991,1.3332417011260986,0.1990852653980255,0.1412731260061264,-1.3159672021865845,0.14643165469169617,-2.275172233581543,0.3418321907520294,1.179240345954895,-0.8175873160362244,1.0843961238861084,-0.7198953628540039,0.14737474918365479,-0.13593615591526031,0.09386751800775528,1.5269536972045898,0.8812159895896912,-0.6777214407920837,-2.7649621963500977,0.8948034048080444,0.7639095187187195,0.16551153361797333,-0.5581907629966736,1.5984078645706177,-1.7872118949890137,-0.7843783497810364,-1.4663453102111816,0.3713071048259735,-0.466542512178421,2.1111903190612793,0.017806433141231537,-0.23880700767040253,0.5727003812789917,-0.7321968078613281,-1.083909273147583,0.5350059866905212,-0.48901838064193726,0.9759745597839355,0.3347799479961395,0.11642102897167206,0.06845036894083023,-0.08631031960248947,0.40752851963043213,-0.3972259759902954,-1.9577046632766724,0.07780009508132935,-0.46059712767601013,-1.3769205808639526,0.7806849479675293,-0.3802459239959717,-1.745234489440918,-0.07476547360420227,-0.6747657060623169,-1.7015472650527954,0.31218665838241577,-1.0505590438842773,0.718370795249939,-0.8974894285202026,0.9770463705062866,0.4254235029220581,0.10860989987850189,-0.7558354139328003,0.9048106074333191,0.5035555362701416,-0.36239925026893616,0.5806372761726379,-1.0255820751190186,-1.2797658443450928,-0.09556646645069122,0.07111677527427673,0.4279066026210785,0.06504682451486588,1.2407134771347046,-1.2905036211013794,0.5683262348175049,0.22564303874969482,1.3562109470367432,0.12491592764854431,0.3163037896156311,1.7612839937210083,0.796290934085846,0.6085557341575623,-0.3901331126689911,0.13895000517368317,-1.65241277217865,-0.8437253832817078,0.6469933390617371,-1.7791686058044434,0.09289197623729706,0.017834285274147987,0.38909879326820374,-1.6962976455688477,-2.0308609008789062,1.1095620393753052,0.11071978509426117,0.410162091255188,1.6166315078735352,0.1738380491733551,-1.9641488790512085,-0.31208837032318115,0.8183743357658386,-0.42541080713272095,-0.3028718829154968,-0.6015574932098389,1.467875599861145,1.2433022260665894,-1.8098024129867554,1.9042868614196777,-0.7740824818611145,2.027639150619507,-1.313934326171875,1.1016167402267456,-0.5664299726486206,-0.1557210087776184,0.8833740949630737,-0.7396563291549683,0.3153126835823059,0.30746421217918396,1.1912660598754883,1.3666571378707886,1.8790143728256226,0.30387017130851746,0.4087216854095459,-0.5685938596725464,-0.7668818235397339,-1.3211699724197388,-0.2262834757566452,0.15640239417552948,0.0202170442789793,0.5733221173286438,-1.3561959266662598,1.7326041460037231,0.30710914731025696,1.0932036638259888,0.3452475368976593,-0.8765148520469666,-0.3258652985095978,-3.29828143119812,0.2138517051935196,-0.06930606067180634,1.2130144834518433,-1.75596022605896,-0.07858525216579437,-0.3054075539112091,-1.2631874084472656,-1.468159556388855,-1.1755062341690063,0.9838877320289612,0.9852950572967529,-1.4399460554122925,-0.16673170030117035,0.473388135433197,0.3256599009037018,-1.5184773206710815,-0.6016743779182434,-1.4357355833053589,1.0164110660552979,2.5953056812286377,-0.049870990216732025,-2.1456823348999023,0.818562924861908,1.5568360090255737,1.4786722660064697,0.16464033722877502,0.5298151969909668,0.09485342353582382,0.72055584192276,0.9414142966270447,-0.7535775899887085,-0.5865079164505005,-0.3416694700717926,-0.23029954731464386,0.19173063337802887,1.1186591386795044,-1.306570053100586,0.9185060262680054,-0.19701112806797028,-2.8661203384399414,-0.3987094461917877,-0.2728864252567291,0.5482101440429688,0.5895594358444214,-0.006365565583109856,-0.8144441246986389,0.9527671337127686,-0.6771303415298462,-1.18844735622406,-0.641492486000061,-0.5386043190956116,-0.11411254853010178,-0.4479534327983856,-0.36437103152275085,0.7416238784790039,0.7965007424354553,0.5328525304794312,-0.3094445765018463,-0.6672574281692505,-0.23177394270896912,-0.1466948688030243,0.8414470553398132,-0.2802177965641022,-1.2047231197357178,-0.8372746109962463,1.7641854286193848,-0.9326608180999756,-1.2637968063354492,-0.2916695177555084,1.761065125465393,0.09644075483083725,0.292648583650589,-1.576562762260437,-1.4988263845443726,-0.0023707207292318344,-0.4576115906238556,0.38966089487075806,-1.1024755239486694,1.0530489683151245,1.3574738502502441,-1.546905279159546,0.2451375275850296,-0.27922359108924866,1.4426064491271973,0.22582939267158508,0.9532519578933716,-0.07627028971910477,0.31418919563293457,2.132826805114746,2.0763609409332275,-1.6964341402053833,0.3812437057495117,0.2412891834974289,-1.0737849473953247,-0.768006443977356,0.18493811786174774,0.9560027718544006,0.5231130719184875,-0.41873449087142944,-1.061165452003479,-2.0932910442352295,1.5400108098983765,-0.5567458868026733,-0.8594311475753784,0.3376271724700928,-0.08589544892311096,-0.016658196225762367,0.6571694612503052,-0.4862176477909088,-1.0576905012130737,-0.14253942668437958,0.06558599323034286,-1.088433861732483,-1.1051316261291504,-1.0473827123641968,0.8158212304115295,1.3844119310379028,1.2734802961349487,-0.9131233096122742,-0.6937015652656555,-1.277215838432312,1.8366472721099854,-0.48422735929489136,-0.037547532469034195,-0.47593268752098083,0.167486310005188,-1.0486187934875488,-0.6203747987747192,-0.9121115803718567,-2.365151882171631,0.25446605682373047,0.738013505935669,0.969976544380188,1.5590616464614868,0.9497351050376892,-0.07225852459669113,0.5429736375808716,-0.5311269760131836,0.7926580905914307,-0.2873019278049469,-2.325063705444336
external_007,10,10,4,4,,,,,-0.635628879070282,-0.47464972734451294,-1.3479129076004028,1.351357340812683,-0.7529482841491699,-0.8909172415733337,0.9839504361152649,0.7766003608703613,0.1827685683965683,-0.9855437278747559,-0.2746477425098419,-0.5883976817131042,-0.21605150401592255,1.1906094551086426,0.5233696699142456,-1.210139513015747,-1.4148045778274536,0.3766385316848755,0.5908617377281189,-0.6477094888687134,-0.963225245475769,-1.6298186779022217,0.7999843955039978,0.5634487867355347,0.5015964508056641,0.6097975373268127,-0.45490339398384094,0.13146311044692993,-0.5104506015777588,-0.4635763168334961,-2.1452226638793945,-0.07717733085155487,0.4936550259590149,0.7861899733543396,-1.038762092590332,1.634177565574646,1.325777292251587,-0.7537366151809692,-0.6418536901473999,0.789061427116394,-0.06261487305164337,-0.4724091589450836,-0.5587434768676758,-0.22113175690174103,1.2607178688049316,-0.4318954050540924,-0.09853290766477585,1.0111888647079468,1.454044222831726,-0.25926822423934937,-0.5827996134757996,0.33211252093315125,0.6609878540039062,-0.8852454423904419,2.5494866371154785,-0.5874865651130676,0.930928111076355,-0.7077337503433228,0.92913818359375,2.000462293624878,-0.39561912417411804,-1.7036000490188599,0.5915346741676331,0.08678947389125824,-1.6156564950942993,1.7361979484558105,-0.4395926296710968,-1.18780517578125,1.8450294733047485,0.26154831051826477,0.5325337648391724,0.5167092084884644,2.1427996158599854,0.20341363549232483,-1.0816192626953125,-2.6847612857818604,-0.5183606147766113,1.603156566619873,-0.6502536535263062,-0.5872036218643188,1.4853495359420776,0.5713605880737305,-0.5200905799865723,0.35468751192092896,0.052703022956848145,0.4991973638534546,0.10917304456233978,0.2793012857437134,-1.1909723281860352,0.8171355128288269,0.5467253923416138,0.6328073143959045,0.6574327945709229,-0.016678063198924065,-0.2791433036327362,-3.148944616317749,0.15021860599517822,-2.9599575996398926,0.3764435350894928,0.7249928116798401,0.6835581064224243,-0.18404753506183624,0.8627728819847107,1.3696343898773193,-0.2421496957540512,-0.10273174196481705,1.2810264825820923,0.20382927358150482,2.381434917449951,-0.24227944016456604,0.363145649433136,-0.8617796897888184,0.2975562512874603,-0.4647098779678345,-1.6165052652359009,-1.913959264755249,0.3845481872558594,-0.8306494355201721,-0.10916485637426376,-0.06923341006040573,-0.4358880817890167,1.6915266513824463,-0.22943103313446045,-0.5850162506103516,-0.9909935593605042,0.8397698402404785,-0.41815730929374695,1.2306106090545654,0.5295273065567017,-0.479591965675354,0.439739465713501,0.5475885272026062,-0.8283303380012512,0.246698260307312,0.3599597215652466,0.08964801579713821,0.621346652507782,-0.1305171400308609,1.5945709943771362,2.5594959259033203,-0.39033806324005127,-1.8957030773162842,0.3992757201194763,0.4725606143474579,0.17462566494941711,-1.2362463474273682,0.39241713285446167,0.8756068348884583,-0.8034197688102722,1.8586033582687378,-0.8087310194969177,0.8071931600570679,-0.1128840520977974,-1.4257416725158691,0.03222022205591202,-0.08296667039394379,2.693697929382324,1.1277529001235962,1.9524402618408203,1.54796302318573,0.09321272373199463,-0.5705747008323669,1.858573317527771,-1.0578597784042358,0.08983758836984634,-0.5423408150672913,0.7556526064872742,2.0440850257873535,-0.16054004430770874,-0.9869964122772217,1.096538782119751,-1.5301027297973633,0.3969521224498749,-0.558131217956543,0.5648331642150879,0.4943738877773285,-0.9526196122169495,1.9318804740905762,1.4483317136764526,-0.8485106825828552,-1.0808310508728027,-0.35348933935165405,-1.263051152229309,-1.0205870866775513,1.0985469818115234,0.07846682518720627,0.7994447946548462,2.196242332458496,-0.06922920793294907,-0.4936210513114929,0.011782748624682426,1.0800743103027344,0.27917832136154175,-1.8103978633880615,-0.6305413246154785,-1.423302173614502,-1.0200154781341553,-1.4955564737319946,0.5507948398590088,0.8602705001831055,-0.12056300044059753,-1.0241196155548096,0.15261319279670715,0.04948267713189125,-0.9197211265563965,-0.8106594085693359,-0.09373238682746887,-0.24438320100307465,-0.5821700096130371,0.015569349750876427,0.10663454234600067,0.6594774127006531,1.1732369661331177,-0.33399590849876404,0.44364210963249207,0.7251362800598145,-1.6967376470565796,0.024456921964883804,-0.30074796080589294,0.28441089391708374,2.022517204284668,-0.24574950337409973,0.7917591333389282,1.0097085237503052,0.5801290273666382,0.5899580121040344,-1.1118957996368408,-0.10194158554077148,0.05507749319076538,-0.14046698808670044,-0.6833381652832031,0.673393189907074,-0.012375669553875923,-1.335033893585205,-0.5926543474197388,-1.4266984462738037,-1.4486931562423706,0.7061408162117004,0.47429898381233215,1.6385542154312134,-1.2283282279968262,0.5378459692001343,0.5151273608207703,0.5781480073928833,0.7021998167037964,0.5739016532897949,0.06628938019275665,-0.743438184261322,1.02327299118042,-2.4931671619415283,-0.9867329001426697,0.10563767701387405,-1.0269607305526733,0.26633092761039734,-0.9364016056060791,1.4037364721298218,-0.5480673909187317,-0.8050649166107178,-0.38581007719039917,0.385039359331131,-0.6592531204223633,-1.2239290475845337,-0.40229639410972595,-1.163038730621338,-0.2737543284893036,-0.24498559534549713,-0.7241115570068359,0.6103940010070801,1.0013649463653564,-1.8562132120132446,1.8124266862869263,0.06568111479282379,0.2607705891132355,-1.3861775398254395,-2.0922420024871826,1.8168575763702393,0.23504093289375305,1.207045316696167,0.6436082124710083,-1.150001883506775,-0.12150833010673523,0.062371958047151566,-0.0006893748068250716,-0.1243002787232399,0.7234722375869751,-0.8825421333312988,-1.020965814590454,-0.48894187808036804,0.27190539240837097,-0.652015209197998,-0.24872452020645142,0.870507001876831,0.6186179518699646,-0.5154147744178772,-2.773481607437134,-1.2490414381027222,-0.09751580655574799,0.4991301894187927,-0.9565806984901428,0.4563598334789276,-0.45445242524147034,0.42219626903533936,-1.299550175666809,-0.24874942004680634,-0.22557057440280914,0.4159798324108124,-0.737082302570343,0.1728762686252594,-1.206108808517456,-0.4433765411376953,-2.4191858768463135,-0.6976680755615234,-1.117418885231018,0.4504598081111908,-0.7443969249725342,0.3277900516986847,0.280324250459671,-0.3714178204536438,0.2033201903104782,2.1411044597625732,-0.42398831248283386,-1.2221696376800537,-0.6125734448432922,0.26735377311706543,0.47993573546409607,-0.15171018242835999,-0.08910975605249405,-0.14479899406433105,-2.4797611236572266,0.5194467902183533,0.1389026641845703,0.43114927411079407,0.9631860852241516,0.6831606030464172,1.0789391994476318,0.015873711556196213,-0.5264461040496826,0.5801045298576355,-1.5381805896759033,1.2041932344436646,-0.33346232771873474,0.3877362608909607,-0.681084394454956,0.023633483797311783,0.820483922958374,-0.9987490177154541,-1.3241162300109863,-0.18028049170970917,-0.9804496765136719,1.4009417295455933,-0.25051870942115784,-0.11176546663045883,-0.06645325571298599,-0.9216337203979492,-0.947683572769165,2.106416702270508,1.8028286695480347,-0.4531935751438141,-0.0018386984011158347,0.602623701095581,-0.465701699256897,-1.043142318725586,0.025369737297296524,0.45106038451194763,1.2536402940750122,1.508177399635315,0.27544376254081726,0.6555712819099426,0.0936402678489685,1.504768967628479,-1.0043624639511108,1.1970012187957764,-1.219516396522522,0.3687436878681183,0.9568143486976624,-0.006217775400727987,-0.28040072321891785,0.8110535740852356,-0.008822683244943619,-0.8647593259811401,-0.9358663558959961,-0.7249414920806885,0.4491332471370697,-1.113891839981079,0.5853478908538818,-0.8787043690681458,0.2675412595272064,-0.6256868243217468,-0.6977658867835999,0.03959725424647331,-0.563079297542572,0.4356370270252228,-0.6341491341590881,-1.90261709690094,-1.9948757886886597,-1.4626092910766602,0.8103189468383789,0.08687706291675568,-1.0951093435287476,-0.4471229314804077,0.9687371253967285,-1.298293113708496,0.4697297215461731,0.7383444309234619,-1.4724677801132202,-0.2764231860637665,-1.656084418296814,0.8025417923927307,-0.5520024299621582,-1.336442470550537,0.046226758509874344,-0.15280455350875854,0.3069792091846466,-1.438873052597046,1.8397691249847412,0.34291210770606995,-0.9091023206710815,1.4468740224838257,0.08088855445384979,-0.8243347406387329,-0.3692309558391571,0.43423429131507874,0.4970981180667877,0.5314247608184814,0.30384793877601624,0.7934125661849976,-0.10750468075275421,-0.2944491505622864,-0.09673862904310226,1.1053756475448608,0.24033215641975403,-1.6848080158233643,-1.1289169788360596,-1.0110923051834106,0.0710768923163414,1.5876033306121826,-1.6027272939682007,-1.6807430982589722,-1.6082533597946167,-0.12879927456378937,-0.6452670693397522,0.760319173336029,-1.8620637655258179,0.3339182734489441,-0.6473336815834045,1.048991322517395,0.02405199594795704,-0.7399763464927673,-1.3554229736328125,1.1366263628005981,-0.5194392800331116,-1.2886390686035156,-0.9258202910423279,0.06919462978839874,0.17695841193199158,-0.6554411053657532,-0.24909470975399017,-0.4589132070541382,1.1043215990066528,-0.7306025624275208,-0.9103228449821472,-1.1398584842681885,-0.3232182562351227,0.7622290253639221,-0.03893403708934784,-0.09362590312957764,1.0109044313430786,0.7362094521522522,0.16987073421478271,1.911379337310791,-1.5493171215057373,1.2197848558425903,0.6806697845458984,-1.2928566932678223,1.1679977178573608,1.1635382175445557,-0.18259163200855255,-0.8246994614601135,-0.5802373886108398,1.3197661638259888,0.46928146481513977,-1.0702992677688599,1.442967176437378,0.936416506767273,-1.1986016035079956,0.2728802561759949,0.0029396575409919024,0.09898386150598526,0.6798338890075684,0.4400840103626251,0.91068434715271,-0.16007834672927856,-0.3242073655128479,-0.12371078878641129,-2.846348524093628,-0.24812763929367065,1.2610814571380615,-0.6783334612846375,-1.3359767198562622,0.46888116002082825,2.427642822265625,-0.4645836651325226,0.4469905197620392,-0.47512564063072205,-1.2582676410675049,-0.45202553272247314,-0.4327964186668396,-0.35111379623413086,-1.1546040773391724,-1.3269104957580566,-1.4638187885284424,-0.08698244392871857
